0.00390625000,0.000,0.000,
0.00781250000,0.000,0.000,
0.01171875000,0.000,0.000,
0.01562500000,0.000,0.000,
0.01953125000,0.000,0.000,
0.02343750000,0.000,0.000,
0.02734375000,0.000,0.000,
0.03125000000,0.000,0.000,
0.03515625000,0.000,0.000,
0.03906250000,0.000,0.000,
0.04296875000,0.000,0.000,
0.04687500000,0.000,0.000,
0.05078125000,115.184,4.560,
0.05468750000,115.184,4.560,
0.05859375000,115.184,4.560,
0.06250000000,115.184,4.560,
0.06640625000,115.184,4.560,
0.07031250000,115.184,4.560,
0.07421875000,115.184,4.560,
0.07812500000,115.184,4.560,
0.08203125000,115.184,4.560,
0.08593750000,115.184,4.560,
0.08984375000,115.184,4.560,
0.09375000000,115.184,4.560,
0.09765625000,115.184,4.560,
0.10156250000,110.426,4.775,
0.10546875000,103.394,5.092,
0.10937500000,97.021,5.379,
0.11328125000,91.244,5.640,
0.11718750000,86.008,5.876,
0.12109375000,81.262,6.090,
0.12500000000,76.960,6.284,
0.12890625000,73.060,6.459,
0.13281250000,69.526,6.619,
0.13671875000,66.322,6.763,
0.14062500000,63.418,6.894,
0.14453125000,60.786,7.013,
0.14843750000,58.400,7.120,
0.15234375000,54.024,7.563,
0.15625000000,49.756,8.011,
0.16015625000,45.888,8.417,
0.16406250000,42.382,8.785,
0.16796875000,39.203,9.118,
0.17187500000,36.323,9.421,
0.17578125000,33.712,9.695,
0.17968750000,31.345,9.943,
0.18359375000,29.199,10.168,
0.18750000000,27.255,10.372,
0.19140625000,25.492,10.557,
0.19531250000,23.895,10.725,
0.19921875000,22.374,10.816,
0.20312500000,20.513,10.490,
0.20703125000,18.826,10.196,
0.21093750000,17.297,9.928,
0.21484375000,15.911,9.686,
0.21875000000,14.654,9.466,
0.22265625000,13.516,9.267,
0.22656250000,12.483,9.087,
0.23046875000,11.548,8.923,
0.23437500000,10.700,8.775,
0.23828125000,9.931,8.641,
0.24218750000,9.234,8.519,
0.24609375000,8.603,8.409,
0.25000000000,7.998,8.344,
0.25390625000,7.397,8.341,
0.25781250000,6.853,8.338,
0.26171875000,6.360,8.336,
0.26562500000,5.913,8.334,
0.26953125000,5.508,8.332,
0.27343750000,5.140,8.330,
0.27734375000,4.807,8.328,
0.28125000000,4.506,8.327,
0.28515625000,4.232,8.325,
0.28906250000,3.984,8.324,
0.29296875000,3.759,8.323,
0.29687500000,3.556,8.322,
0.30078125000,3.411,8.321,
0.30468750000,3.303,8.320,
0.30859375000,3.205,8.319,
0.31250000000,3.116,8.318,
0.31640625000,3.036,8.317,
0.32031250000,2.963,8.316,
0.32421875000,2.897,8.315,
0.32812500000,2.837,8.315,
0.33203125000,2.782,8.314,
0.33593750000,2.733,8.314,
0.33984375000,2.689,8.313,
0.34375000000,2.648,8.313,
0.34765625000,2.611,8.312,
0.35156250000,2.508,8.340,
0.35546875000,2.404,8.368,
0.35937500000,2.311,8.394,
0.36328125000,2.226,8.418,
0.36718750000,2.149,8.439,
0.37109375000,2.079,8.459,
0.37500000000,2.015,8.476,
0.37890625000,1.958,8.492,
0.38281250000,1.906,8.506,
0.38671875000,1.859,8.520,
0.39062500000,1.816,8.531,
0.39453125000,1.778,8.542,
0.39843750000,1.745,8.609,
0.40234375000,1.731,9.053,
0.40625000000,1.718,9.454,
0.41015625000,1.707,9.819,
0.41406250000,1.696,10.149,
0.41796875000,1.687,10.448,
0.42187500000,1.678,10.719,
0.42578125000,1.670,10.965,
0.42968750000,1.663,11.188,
0.43359375000,1.657,11.390,
0.43750000000,1.651,11.573,
0.44140625000,1.646,11.739,
0.44531250000,1.641,11.890,
0.44921875000,1.630,11.926,
0.45312500000,1.609,11.802,
0.45703125000,1.590,11.689,
0.46093750000,1.573,11.587,
0.46484375000,1.557,11.495,
0.46875000000,1.543,11.411,
0.47265625000,1.530,11.335,
0.47656250000,1.519,11.266,
0.48046875000,1.508,11.203,
0.48437500000,1.499,11.146,
0.48828125000,1.490,11.095,
0.49218750000,1.482,11.048,
0.49609375000,1.475,11.006,
0.50000000000,1.490,11.041,
0.50390625000,1.516,11.114,
0.50781250000,1.540,11.180,
0.51171875000,1.561,11.239,
0.51562500000,1.581,11.294,
0.51953125000,1.598,11.343,
0.52343750000,1.614,11.387,
0.52734375000,1.629,11.428,
0.53125000000,1.642,11.464,
0.53515625000,1.653,11.498,
0.53906250000,1.664,11.528,
0.54296875000,1.674,11.555,
0.54687500000,1.683,11.580,
0.55078125000,1.716,13.102,
0.55468750000,1.749,14.685,
0.55859375000,1.780,16.121,
0.56250000000,1.807,17.422,
0.56640625000,1.832,18.601,
0.57031250000,1.855,19.670,
0.57421875000,1.875,20.639,
0.57812500000,1.894,21.517,
0.58203125000,1.911,22.313,
0.58593750000,1.926,23.035,
0.58984375000,1.940,23.689,
0.59375000000,1.952,24.282,
0.59765625000,1.962,24.707,
0.60156250000,1.963,24.345,
0.60546875000,1.963,24.018,
0.60937500000,1.963,23.721,
0.61328125000,1.964,23.451,
0.61718750000,1.964,23.207,
0.62109375000,1.964,22.986,
0.62500000000,1.964,22.786,
0.62890625000,1.965,22.604,
0.63281250000,1.965,22.439,
0.63671875000,1.965,22.290,
0.64062500000,1.965,22.155,
0.64453125000,1.965,22.032,
0.64843750000,1.961,21.653,
0.65234375000,1.949,20.883,
0.65625000000,1.939,20.185,
0.66015625000,1.930,19.552,
0.66406250000,1.921,18.979,
0.66796875000,1.914,18.459,
0.67187500000,1.907,17.988,
0.67578125000,1.901,17.561,
0.67968750000,1.895,17.174,
0.68359375000,1.890,16.823,
0.68750000000,1.885,16.505,
0.69140625000,1.881,16.217,
0.69531250000,1.877,15.956,
0.69921875000,1.873,15.432,
0.70312500000,1.869,14.792,
0.70703125000,1.865,14.212,
0.71093750000,1.862,13.687,
0.71484375000,1.858,13.211,
0.71875000000,1.856,12.779,
0.72265625000,1.853,12.387,
0.72656250000,1.851,12.033,
0.73046875000,1.849,11.711,
0.73437500000,1.847,11.420,
0.73828125000,1.845,11.156,
0.74218750000,1.844,10.916,
0.74609375000,1.842,10.699,
0.75000000000,1.826,10.396,
0.75390625000,1.810,10.107,
0.75781250000,1.795,9.845,
0.76171875000,1.782,9.608,
0.76562500000,1.770,9.393,
0.76953125000,1.759,9.197,
0.77343750000,1.749,9.021,
0.77734375000,1.739,8.860,
0.78125000000,1.731,8.715,
0.78515625000,1.724,8.583,
0.78906250000,1.717,8.464,
0.79296875000,1.711,8.356,
0.79687500000,1.708,8.258,
0.80078125000,1.719,8.174,
0.80468750000,1.730,8.097,
0.80859375000,1.740,8.028,
0.81250000000,1.748,7.965,
0.81640625000,1.756,7.908,
0.82031250000,1.763,7.856,
0.82421875000,1.770,7.809,
0.82812500000,1.776,7.767,
0.83203125000,1.781,7.728,
0.83593750000,1.786,7.693,
0.83984375000,1.790,7.662,
0.84375000000,1.794,7.633,
0.84765625000,1.804,7.569,
0.85156250000,1.824,7.451,
0.85546875000,1.842,7.344,
0.85937500000,1.859,7.247,
0.86328125000,1.873,7.159,
0.86718750000,1.887,7.079,
0.87109375000,1.899,7.007,
0.87500000000,1.910,6.941,
0.87890625000,1.920,6.882,
0.88281250000,1.929,6.828,
0.88671875000,1.937,6.780,
0.89062500000,1.944,6.735,
0.89453125000,1.951,6.695,
0.89843750000,1.938,6.877,
0.90234375000,1.916,7.165,
0.90625000000,1.895,7.427,
0.91015625000,1.877,7.664,
0.91406250000,1.860,7.879,
0.91796875000,1.845,8.074,
0.92187500000,1.831,8.251,
0.92578125000,1.819,8.411,
0.92968750000,1.807,8.556,
0.93359375000,1.797,8.687,
0.93750000000,1.788,8.807,
0.94140625000,1.779,8.915,
0.94531250000,1.772,9.013,
0.94921875000,1.799,8.786,
0.95312500000,1.829,8.537,
0.95703125000,1.855,8.312,
0.96093750000,1.880,8.107,
0.96484375000,1.901,7.922,
0.96875000000,1.921,7.754,
0.97265625000,1.939,7.602,
0.97656250000,1.956,7.464,
0.98046875000,1.970,7.339,
0.98437500000,1.984,7.226,
0.98828125000,1.996,7.123,
0.99218750000,2.007,7.030,
0.99609375000,2.016,6.973,
1.00000000000,2.018,7.106,
1.00390625000,2.019,7.227,
1.00781250000,2.020,7.336,
1.01171875000,2.021,7.435,
1.01562500000,2.022,7.525,
1.01953125000,2.023,7.606,
1.02343750000,2.024,7.680,
1.02734375000,2.025,7.746,
1.03125000000,2.025,7.807,
1.03515625000,2.026,7.862,
1.03906250000,2.027,7.912,
1.04296875000,2.027,7.957,
1.04687500000,2.009,7.956,
1.05078125000,1.964,7.888,
1.05468750000,1.923,7.826,
1.05859375000,1.885,7.770,
1.06250000000,1.852,7.719,
1.06640625000,1.821,7.674,
1.07031250000,1.793,7.632,
1.07421875000,1.768,7.594,
1.07812500000,1.745,7.560,
1.08203125000,1.724,7.529,
1.08593750000,1.706,7.501,
1.08984375000,1.689,7.476,
1.09375000000,1.673,7.452,
1.09765625000,1.695,7.447,
1.10156250000,1.736,7.451,
1.10546875000,1.773,7.454,
1.10937500000,1.806,7.458,
1.11328125000,1.837,7.460,
1.11718750000,1.864,7.463,
1.12109375000,1.889,7.465,
1.12500000000,1.911,7.467,
1.12890625000,1.932,7.469,
1.13281250000,1.950,7.471,
1.13671875000,1.967,7.473,
1.14062500000,1.982,7.474,
1.14453125000,1.996,7.475,
1.14843750000,2.007,7.515,
1.15234375000,2.017,7.556,
1.15625000000,2.027,7.593,
1.16015625000,2.035,7.627,
1.16406250000,2.042,7.657,
1.16796875000,2.049,7.685,
1.17187500000,2.055,7.710,
1.17578125000,2.061,7.733,
1.17968750000,2.066,7.753,
1.18359375000,2.071,7.772,
1.18750000000,2.075,7.789,
1.19140625000,2.079,7.804,
1.19531250000,2.075,7.857,
1.19921875000,2.020,8.163,
1.20312500000,1.971,8.440,
1.20703125000,1.926,8.692,
1.21093750000,1.885,8.920,
1.21484375000,1.849,9.126,
1.21875000000,1.815,9.314,
1.22265625000,1.785,9.483,
1.22656250000,1.758,9.637,
1.23046875000,1.733,9.777,
1.23437500000,1.710,9.903,
1.23828125000,1.690,10.018,
1.24218750000,1.672,10.122,
1.24609375000,1.673,10.299,
1.25000000000,1.704,10.592,
1.25390625000,1.732,10.858,
1.25781250000,1.757,11.099,
1.26171875000,1.780,11.317,
1.26562500000,1.800,11.515,
1.26953125000,1.819,11.695,
1.27343750000,1.836,11.857,
1.27734375000,1.852,12.004,
1.28125000000,1.866,12.138,
1.28515625000,1.878,12.259,
1.28906250000,1.890,12.369,
1.29296875000,1.900,12.468,
1.29687500000,1.910,13.117,
1.30078125000,1.919,14.024,
1.30468750000,1.927,14.847,
1.30859375000,1.935,15.592,
1.31250000000,1.942,16.268,
1.31640625000,1.948,16.880,
1.32031250000,1.953,17.435,
1.32421875000,1.958,17.938,
1.32812500000,1.963,18.394,
1.33203125000,1.967,18.807,
1.33593750000,1.971,19.182,
1.33984375000,1.974,19.522,
1.34375000000,1.977,19.830,
1.34765625000,1.966,20.273,
1.35156250000,1.954,20.696,
1.35546875000,1.943,21.081,
1.35937500000,1.934,21.429,
1.36328125000,1.925,21.745,
1.36718750000,1.917,22.031,
1.37109375000,1.909,22.290,
1.37500000000,1.903,22.525,
1.37890625000,1.897,22.738,
1.38281250000,1.891,22.931,
1.38671875000,1.886,23.107,
1.39062500000,1.882,23.265,
1.39453125000,1.879,23.249,
1.39843750000,1.883,22.168,
1.40234375000,1.886,21.189,
1.40625000000,1.889,20.301,
1.41015625000,1.892,19.496,
1.41406250000,1.895,18.767,
1.41796875000,1.897,18.106,
1.42187500000,1.899,17.506,
1.42578125000,1.901,16.963,
1.42968750000,1.903,16.471,
1.43359375000,1.905,16.025,
1.43750000000,1.906,15.620,
1.44140625000,1.908,15.253,
1.44531250000,1.906,14.925,
1.44921875000,1.900,14.633,
1.45312500000,1.895,14.368,
1.45703125000,1.890,14.128,
1.46093750000,1.885,13.910,
1.46484375000,1.881,13.713,
1.46875000000,1.878,13.535,
1.47265625000,1.874,13.373,
1.47656250000,1.871,13.226,
1.48046875000,1.869,13.093,
1.48437500000,1.866,12.972,
1.48828125000,1.864,12.863,
1.49218750000,1.862,12.764,
1.49609375000,1.889,12.617,
1.50000000000,1.929,12.452,
1.50390625000,1.965,12.303,
1.50781250000,1.998,12.167,
1.51171875000,2.028,12.044,
1.51562500000,2.056,11.933,
1.51953125000,2.080,11.832,
1.52343750000,2.103,11.740,
1.52734375000,2.123,11.657,
1.53125000000,2.141,11.582,
1.53515625000,2.158,11.514,
1.53906250000,2.173,11.452,
1.54296875000,2.187,11.396,
1.54687500000,2.137,11.496,
1.55078125000,2.083,11.607,
1.55468750000,2.035,11.707,
1.55859375000,1.991,11.798,
1.56250000000,1.951,11.881,
1.56640625000,1.914,11.956,
1.57031250000,1.882,12.024,
1.57421875000,1.852,12.085,
1.57812500000,1.825,12.141,
1.58203125000,1.800,12.191,
1.58593750000,1.778,12.237,
1.58984375000,1.758,12.279,
1.59375000000,1.750,12.244,
1.59765625000,1.813,11.727,
1.60156250000,1.869,11.258,
1.60546875000,1.921,10.833,
1.60937500000,1.967,10.448,
1.61328125000,2.009,10.099,
1.61718750000,2.047,9.783,
1.62109375000,2.082,9.496,
1.62500000000,2.113,9.237,
1.62890625000,2.142,9.001,
1.63281250000,2.167,8.788,
1.63671875000,2.191,8.594,
1.64062500000,2.212,8.419,
1.64453125000,2.204,8.221,
1.64843750000,2.153,7.982,
1.65234375000,2.107,7.765,
1.65625000000,2.065,7.568,
1.66015625000,2.027,7.390,
1.66406250000,1.993,7.228,
1.66796875000,1.962,7.082,
1.67187500000,1.934,6.949,
1.67578125000,1.908,6.828,
1.67968750000,1.885,6.719,
1.68359375000,1.864,6.620,
1.68750000000,1.845,6.531,
1.69140625000,1.828,6.449,
1.69531250000,1.826,6.498,
1.69921875000,1.832,6.612,
1.70312500000,1.837,6.716,
1.70703125000,1.842,6.809,
1.71093750000,1.846,6.894,
1.71484375000,1.850,6.971,
1.71875000000,1.853,7.041,
1.72265625000,1.857,7.104,
1.72656250000,1.860,7.162,
1.73046875000,1.862,7.214,
1.73437500000,1.865,7.261,
1.73828125000,1.867,7.304,
1.74218750000,1.869,7.342,
1.74609375000,1.872,7.420,
1.75000000000,1.875,7.497,
1.75390625000,1.878,7.566,
1.75781250000,1.880,7.629,
1.76171875000,1.883,7.687,
1.76562500000,1.885,7.738,
1.76953125000,1.887,7.785,
1.77343750000,1.888,7.828,
1.77734375000,1.890,7.866,
1.78125000000,1.891,7.901,
1.78515625000,1.893,7.933,
1.78906250000,1.894,7.961,
1.79296875000,1.893,7.983,
1.79687500000,1.881,7.976,
1.80078125000,1.870,7.969,
1.80468750000,1.860,7.963,
1.80859375000,1.851,7.958,
1.81250000000,1.843,7.953,
1.81640625000,1.835,7.948,
1.82031250000,1.829,7.944,
1.82421875000,1.822,7.941,
1.82812500000,1.817,7.937,
1.83203125000,1.812,7.934,
1.83593750000,1.807,7.931,
1.83984375000,1.803,7.929,
1.84375000000,1.819,7.892,
1.84765625000,1.865,7.802,
1.85156250000,1.906,7.721,
1.85546875000,1.944,7.648,
1.85937500000,1.977,7.581,
1.86328125000,2.008,7.521,
1.86718750000,2.036,7.466,
1.87109375000,2.061,7.417,
1.87500000000,2.084,7.372,
1.87890625000,2.105,7.331,
1.88281250000,2.124,7.294,
1.88671875000,2.141,7.261,
1.89062500000,2.156,7.230,
1.89453125000,2.152,7.459,
1.89843750000,2.138,7.812,
1.90234375000,2.125,8.132,
1.90625000000,2.114,8.422,
1.91015625000,2.103,8.685,
1.91406250000,2.094,8.923,
1.91796875000,2.085,9.139,
1.92187500000,2.077,9.335,
1.92578125000,2.070,9.512,
1.92968750000,2.064,9.673,
1.93359375000,2.058,9.819,
1.93750000000,2.052,9.951,
1.94140625000,2.048,10.071,
1.94531250000,2.008,10.384,
1.94921875000,1.967,10.696,
1.95312500000,1.931,10.979,
1.95703125000,1.897,11.235,
1.96093750000,1.867,11.467,
1.96484375000,1.840,11.678,
1.96875000000,1.815,11.869,
1.97265625000,1.792,12.042,
1.97656250000,1.772,12.198,
1.98046875000,1.753,12.340,
1.98437500000,1.737,12.469,
1.98828125000,1.721,12.586,
1.99218750000,1.719,12.670,
1.99609375000,1.790,12.598,
2.00000000000,1.855,12.533,
2.00390625000,1.914,12.474,
2.00781250000,1.967,12.420,
2.01171875000,2.016,12.372,
2.01562500000,2.060,12.328,
2.01953125000,2.099,12.288,
2.02343750000,2.135,12.252,
2.02734375000,2.168,12.219,
2.03125000000,2.198,12.190,
2.03515625000,2.224,12.163,
2.03906250000,2.249,12.139,
2.04296875000,2.244,12.409,
2.04687500000,2.198,13.120,
2.05078125000,2.157,13.764,
2.05468750000,2.119,14.347,
2.05859375000,2.085,14.876,
2.06250000000,2.054,15.356,
2.06640625000,2.026,15.791,
2.07031250000,2.000,16.184,
2.07421875000,1.977,16.542,
2.07812500000,1.956,16.865,
2.08203125000,1.937,17.159,
2.08593750000,1.920,17.425,
2.08984375000,1.904,17.666,
2.09375000000,1.915,17.808,
2.09765625000,1.938,17.893,
2.10156250000,1.959,17.970,
2.10546875000,1.978,18.040,
2.10937500000,1.996,18.103,
2.11328125000,2.012,18.160,
2.11718750000,2.026,18.213,
2.12109375000,2.039,18.260,
2.12500000000,2.051,18.302,
2.12890625000,2.061,18.341,
2.13281250000,2.071,18.376,
2.13671875000,2.080,18.408,
2.14062500000,2.088,18.437,
2.14453125000,2.023,17.532,
2.14843750000,1.955,16.584,
2.15234375000,1.893,15.726,
2.15625000000,1.837,14.948,
2.16015625000,1.787,14.242,
2.16406250000,1.741,13.603,
2.16796875000,1.699,13.023,
2.17187500000,1.661,12.498,
2.17578125000,1.627,12.022,
2.17968750000,1.596,11.590,
2.18359375000,1.568,11.199,
2.18750000000,1.542,10.844,
2.19140625000,1.537,10.517,
2.19531250000,1.650,10.181,
2.19921875000,1.752,9.876,
2.20312500000,1.845,9.600,
2.20703125000,1.929,9.350,
2.21093750000,2.005,9.123,
2.21484375000,2.074,8.917,
2.21875000000,2.136,8.731,
2.22265625000,2.193,8.562,
2.22656250000,2.245,8.408,
2.23046875000,2.291,8.270,
2.23437500000,2.333,8.144,
2.23828125000,2.372,8.030,
2.24218750000,2.365,7.971,
2.24609375000,2.292,7.988,
2.25000000000,2.225,8.003,
2.25390625000,2.166,8.018,
2.25781250000,2.111,8.030,
2.26171875000,2.062,8.042,
2.26562500000,2.017,8.052,
2.26953125000,1.977,8.062,
2.27343750000,1.940,8.070,
2.27734375000,1.907,8.078,
2.28125000000,1.877,8.085,
2.28515625000,1.849,8.092,
2.28906250000,1.825,8.098,
2.29296875000,1.808,8.160,
2.29687500000,1.796,8.250,
2.30078125000,1.785,8.332,
2.30468750000,1.775,8.405,
2.30859375000,1.766,8.472,
2.31250000000,1.758,8.533,
2.31640625000,1.751,8.588,
2.32031250000,1.744,8.638,
2.32421875000,1.738,8.683,
2.32812500000,1.733,8.724,
2.33203125000,1.728,8.761,
2.33593750000,1.724,8.795,
2.33984375000,1.720,8.825,
2.34375000000,1.742,8.681,
2.34765625000,1.767,8.528,
2.35156250000,1.789,8.389,
2.35546875000,1.809,8.263,
2.35937500000,1.827,8.148,
2.36328125000,1.844,8.045,
2.36718750000,1.858,7.951,
2.37109375000,1.872,7.866,
2.37500000000,1.884,7.789,
2.37890625000,1.895,7.719,
2.38281250000,1.905,7.655,
2.38671875000,1.915,7.598,
2.39062500000,1.920,7.565,
2.39453125000,1.908,7.660,
2.39843750000,1.897,7.746,
2.40234375000,1.887,7.824,
2.40625000000,1.878,7.895,
2.41015625000,1.870,7.959,
2.41406250000,1.863,8.017,
2.41796875000,1.856,8.070,
2.42187500000,1.850,8.118,
2.42578125000,1.845,8.161,
2.42968750000,1.840,8.200,
2.43359375000,1.835,8.236,
2.43750000000,1.831,8.268,
2.44140625000,1.846,8.210,
2.44531250000,1.887,8.018,
2.44921875000,1.925,7.843,
2.45312500000,1.959,7.686,
2.45703125000,1.990,7.543,
2.46093750000,2.018,7.413,
2.46484375000,2.043,7.295,
2.46875000000,2.066,7.189,
2.47265625000,2.087,7.092,
2.47656250000,2.106,7.005,
2.48046875000,2.123,6.925,
2.48437500000,2.139,6.854,
2.48828125000,2.153,6.788,
2.49218750000,2.153,7.066,
2.49609375000,2.146,7.511,
2.50000000000,2.140,7.914,
2.50390625000,2.134,8.279,
2.50781250000,2.129,8.610,
2.51171875000,2.124,8.911,
2.51562500000,2.120,9.183,
2.51953125000,2.116,9.429,
2.52343750000,2.112,9.653,
2.52734375000,2.109,9.855,
2.53125000000,2.106,10.039,
2.53515625000,2.103,10.205,
2.53906250000,2.101,10.356,
2.54296875000,2.056,10.669,
2.54687500000,2.010,10.976,
2.55078125000,1.967,11.254,
2.55468750000,1.929,11.506,
2.55859375000,1.895,11.735,
2.56250000000,1.863,11.942,
2.56640625000,1.835,12.130,
2.57031250000,1.809,12.300,
2.57421875000,1.785,12.455,
2.57812500000,1.764,12.595,
2.58203125000,1.745,12.721,
2.58593750000,1.728,12.836,
2.58984375000,1.711,12.850,
2.59375000000,1.689,12.260,
2.59765625000,1.669,11.725,
2.60156250000,1.651,11.240,
2.60546875000,1.635,10.800,
2.60937500000,1.620,10.402,
2.61328125000,1.607,10.040,
2.61718750000,1.595,9.713,
2.62109375000,1.584,9.416,
2.62500000000,1.574,9.147,
2.62890625000,1.565,8.903,
2.63281250000,1.557,8.682,
2.63671875000,1.549,8.482,
2.64062500000,1.554,8.401,
2.64453125000,1.579,8.486,
2.64843750000,1.600,8.563,
2.65234375000,1.620,8.633,
2.65625000000,1.638,8.696,
2.66015625000,1.654,8.754,
2.66406250000,1.669,8.806,
2.66796875000,1.682,8.853,
2.67187500000,1.694,8.896,
2.67578125000,1.705,8.934,
2.67968750000,1.715,8.970,
2.68359375000,1.724,9.001,
2.68750000000,1.732,9.030,
2.69140625000,1.723,9.381,
2.69531250000,1.704,9.884,
2.69921875000,1.687,10.339,
2.70312500000,1.672,10.752,
2.70703125000,1.659,11.127,
2.71093750000,1.646,11.466,
2.71484375000,1.635,11.774,
2.71875000000,1.625,12.053,
2.72265625000,1.615,12.305,
2.72656250000,1.607,12.534,
2.73046875000,1.599,12.742,
2.73437500000,1.592,12.930,
2.73828125000,1.586,13.101,
2.74218750000,1.589,13.687,
2.74609375000,1.593,14.277,
2.75000000000,1.597,14.812,
2.75390625000,1.600,15.297,
2.75781250000,1.603,15.737,
2.76171875000,1.606,16.135,
2.76562500000,1.608,16.496,
2.76953125000,1.610,16.824,
2.77343750000,1.612,17.120,
2.77734375000,1.614,17.389,
2.78125000000,1.616,17.633,
2.78515625000,1.617,17.854,
2.78906250000,1.624,17.948,
2.79296875000,1.667,17.330,
2.79687500000,1.706,16.770,
2.80078125000,1.741,16.262,
2.80468750000,1.773,15.802,
2.80859375000,1.802,15.384,
2.81250000000,1.828,15.006,
2.81640625000,1.852,14.663,
2.82031250000,1.873,14.352,
2.82421875000,1.893,14.071,
2.82812500000,1.911,13.815,
2.83203125000,1.927,13.584,
2.83593750000,1.941,13.374,
2.83984375000,1.955,13.201,
2.84375000000,1.968,13.070,
2.84765625000,1.980,12.951,
2.85156250000,1.991,12.843,
2.85546875000,2.000,12.746,
2.85937500000,2.009,12.657,
2.86328125000,2.017,12.577,
2.86718750000,2.025,12.505,
2.87109375000,2.031,12.439,
2.87500000000,2.037,12.379,
2.87890625000,2.043,12.325,
2.88281250000,2.047,12.276,
2.88671875000,2.052,12.231,
2.89062500000,2.014,11.940,
2.89453125000,1.955,11.532,
2.89843750000,1.902,11.162,
2.90234375000,1.853,10.827,
2.90625000000,1.810,10.523,
2.91015625000,1.770,10.247,
2.91406250000,1.734,9.998,
2.91796875000,1.701,9.771,
2.92187500000,1.672,9.566,
2.92578125000,1.645,9.380,
2.92968750000,1.621,9.212,
2.93359375000,1.599,9.059,
2.93750000000,1.579,8.921,
2.94140625000,1.643,8.764,
2.94531250000,1.713,8.617,
2.94921875000,1.776,8.484,
2.95312500000,1.834,8.363,
2.95703125000,1.886,8.254,
2.96093750000,1.933,8.155,
2.96484375000,1.975,8.066,
2.96875000000,2.014,7.984,
2.97265625000,2.049,7.910,
2.97656250000,2.081,7.844,
2.98046875000,2.110,7.783,
2.98437500000,2.136,7.728,
2.98828125000,2.145,7.713,
2.99218750000,2.056,7.932,
2.99609375000,1.975,8.130,
3.00000000000,1.902,8.310,
3.00390625000,1.836,8.473,
3.00781250000,1.776,8.620,
3.01171875000,1.722,8.754,
3.01562500000,1.673,8.875,
3.01953125000,1.628,8.985,
3.02343750000,1.587,9.085,
3.02734375000,1.551,9.175,
3.03125000000,1.517,9.257,
3.03515625000,1.487,9.331,
3.03906250000,1.473,9.215,
3.04296875000,1.480,8.819,
3.04687500000,1.487,8.461,
3.05078125000,1.493,8.136,
3.05468750000,1.499,7.841,
3.05859375000,1.504,7.574,
3.06250000000,1.509,7.332,
3.06640625000,1.513,7.112,
3.07031250000,1.517,6.913,
3.07421875000,1.520,6.733,
3.07812500000,1.523,6.569,
3.08203125000,1.526,6.421,
3.08593750000,1.529,6.287,
3.08984375000,1.527,6.302,
3.09375000000,1.524,6.393,
3.09765625000,1.521,6.476,
3.10156250000,1.519,6.551,
3.10546875000,1.517,6.619,
3.10937500000,1.515,6.681,
3.11328125000,1.513,6.737,
3.11718750000,1.511,6.788,
3.12109375000,1.509,6.834,
3.12500000000,1.508,6.875,
3.12890625000,1.507,6.913,
3.13281250000,1.506,6.947,
3.13671875000,1.505,6.979,
3.14062500000,1.530,6.972,
3.14453125000,1.556,6.960,
3.14843750000,1.580,6.950,
3.15234375000,1.601,6.941,
3.15625000000,1.621,6.933,
3.16015625000,1.639,6.926,
3.16406250000,1.655,6.919,
3.16796875000,1.669,6.913,
3.17187500000,1.682,6.907,
3.17578125000,1.694,6.902,
3.17968750000,1.705,6.898,
3.18359375000,1.715,6.893,
3.18750000000,1.728,6.911,
3.19140625000,1.766,7.069,
3.19531250000,1.800,7.213,
3.19921875000,1.831,7.343,
3.20312500000,1.859,7.461,
3.20703125000,1.885,7.568,
3.21093750000,1.908,7.665,
3.21484375000,1.929,7.753,
3.21875000000,1.948,7.833,
3.22265625000,1.965,7.905,
3.22656250000,1.981,7.970,
3.23046875000,1.995,8.029,
3.23437500000,2.008,8.083,
3.23828125000,1.991,8.048,
3.24218750000,1.933,7.883,
3.24609375000,1.880,7.733,
3.25000000000,1.832,7.598,
3.25390625000,1.788,7.475,
3.25781250000,1.749,7.363,
3.26171875000,1.713,7.262,
3.26562500000,1.680,7.170,
3.26953125000,1.651,7.087,
3.27343750000,1.624,7.012,
3.27734375000,1.600,6.944,
3.28125000000,1.578,6.882,
3.28515625000,1.558,6.826,
3.28906250000,1.572,6.977,
3.29296875000,1.603,7.228,
3.29687500000,1.632,7.456,
3.30078125000,1.657,7.662,
3.30468750000,1.680,7.849,
3.30859375000,1.701,8.019,
3.31250000000,1.720,8.173,
3.31640625000,1.738,8.312,
3.32031250000,1.753,8.438,
3.32421875000,1.767,8.553,
3.32812500000,1.780,8.657,
3.33203125000,1.792,8.751,
3.33593750000,1.803,8.836,
3.33984375000,1.780,9.157,
3.34375000000,1.756,9.481,
3.34765625000,1.734,9.774,
3.35156250000,1.714,10.040,
3.35546875000,1.696,10.282,
3.35937500000,1.679,10.500,
3.36328125000,1.665,10.699,
3.36718750000,1.651,10.878,
3.37109375000,1.639,11.041,
3.37500000000,1.628,11.189,
3.37890625000,1.618,11.323,
3.38281250000,1.608,11.444,
3.38671875000,1.611,11.538,
3.39062500000,1.684,11.518,
3.39453125000,1.751,11.500,
3.39843750000,1.812,11.484,
3.40234375000,1.866,11.469,
3.40625000000,1.916,11.456,
3.41015625000,1.961,11.444,
3.41406250000,2.002,11.433,
3.41796875000,2.039,11.423,
3.42187500000,2.072,11.414,
3.42578125000,2.103,11.406,
3.42968750000,2.130,11.398,
3.43359375000,2.155,11.392,
3.43750000000,2.159,11.992,
3.44140625000,2.132,13.499,
3.44531250000,2.108,14.865,
3.44921875000,2.086,16.104,
3.45312500000,2.066,17.226,
3.45703125000,2.048,18.243,
3.46093750000,2.031,19.166,
3.46484375000,2.017,20.001,
3.46875000000,2.003,20.759,
3.47265625000,1.991,21.446,
3.47656250000,1.980,22.068,
3.48046875000,1.970,22.632,
3.48437500000,1.961,23.144,
3.48828125000,1.935,23.121,
3.49218750000,1.901,22.822,
3.49609375000,1.870,22.551,
3.50000000000,1.842,22.306,
3.50390625000,1.816,22.083,
3.50781250000,1.793,21.881,
3.51171875000,1.772,21.699,
3.51562500000,1.754,21.533,
3.51953125000,1.736,21.383,
3.52343750000,1.721,21.247,
3.52734375000,1.707,21.123,
3.53125000000,1.694,21.011,
3.53515625000,1.682,20.910,
3.53906250000,1.710,19.755,
3.54296875000,1.740,18.563,
3.54687500000,1.767,17.483,
3.55078125000,1.791,16.503,
3.55468750000,1.814,15.616,
3.55859375000,1.834,14.811,
3.56250000000,1.852,14.082,
3.56640625000,1.869,13.421,
3.57031250000,1.884,12.822,
3.57421875000,1.897,12.279,
3.57812500000,1.910,11.787,
3.58203125000,1.921,11.341,
3.58593750000,1.926,10.941,
3.58984375000,1.893,10.607,
3.59375000000,1.864,10.305,
3.59765625000,1.838,10.031,
3.60156250000,1.814,9.782,
3.60546875000,1.792,9.557,
3.60937500000,1.773,9.353,
3.61328125000,1.755,9.168,
3.61718750000,1.738,9.000,
3.62109375000,1.724,8.848,
3.62500000000,1.711,8.711,
3.62890625000,1.698,8.586,
3.63281250000,1.688,8.472,
3.63671875000,1.690,8.493,
3.64062500000,1.711,8.707,
3.64453125000,1.731,8.901,
3.64843750000,1.748,9.077,
3.65234375000,1.764,9.236,
3.65625000000,1.779,9.380,
3.66015625000,1.792,9.511,
3.66406250000,1.804,9.630,
3.66796875000,1.815,9.738,
3.67187500000,1.825,9.835,
3.67578125000,1.834,9.923,
3.67968750000,1.842,10.004,
3.68359375000,1.849,10.076,
3.68750000000,1.840,10.306,
3.69140625000,1.823,10.609,
3.69531250000,1.808,10.883,
3.69921875000,1.794,11.131,
3.70312500000,1.781,11.356,
3.70703125000,1.770,11.560,
3.71093750000,1.759,11.745,
3.71484375000,1.750,11.913,
3.71875000000,1.741,12.065,
3.72265625000,1.734,12.203,
3.72656250000,1.727,12.328,
3.73046875000,1.720,12.441,
3.73437500000,1.715,12.543,
3.73828125000,1.726,12.070,
3.74218750000,1.739,11.565,
3.74609375000,1.751,11.106,
3.75000000000,1.761,10.691,
3.75390625000,1.771,10.315,
3.75781250000,1.779,9.973,
3.76171875000,1.787,9.664,
3.76562500000,1.794,9.384,
3.76953125000,1.801,9.129,
3.77343750000,1.806,8.899,
3.77734375000,1.812,8.690,
3.78125000000,1.816,8.501,
3.78515625000,1.814,8.318,
3.78906250000,1.763,8.073,
3.79296875000,1.718,7.851,
3.79687500000,1.676,7.649,
3.80078125000,1.639,7.467,
3.80468750000,1.605,7.302,
3.80859375000,1.574,7.152,
3.81250000000,1.546,7.016,
3.81640625000,1.521,6.893,
3.82031250000,1.498,6.781,
3.82421875000,1.477,6.680,
3.82812500000,1.458,6.589,
3.83203125000,1.441,6.506,
3.83593750000,1.456,6.582,
3.83984375000,1.518,6.893,
3.84375000000,1.574,7.175,
3.84765625000,1.625,7.430,
3.85156250000,1.671,7.662,
3.85546875000,1.713,7.872,
3.85937500000,1.750,8.062,
3.86328125000,1.785,8.234,
3.86718750000,1.816,8.391,
3.87109375000,1.844,8.532,
3.87500000000,1.869,8.661,
3.87890625000,1.893,8.777,
3.88281250000,1.914,8.883,
3.88671875000,1.905,8.825,
3.89062500000,1.882,8.684,
3.89453125000,1.862,8.557,
3.89843750000,1.843,8.442,
3.90234375000,1.826,8.338,
3.90625000000,1.810,8.243,
3.91015625000,1.796,8.157,
3.91406250000,1.783,8.079,
3.91796875000,1.772,8.009,
3.92187500000,1.761,7.945,
3.92578125000,1.752,7.887,
3.92968750000,1.743,7.834,
3.93359375000,1.735,7.787,
3.93750000000,1.746,7.974,
3.94140625000,1.758,8.175,
3.94531250000,1.769,8.357,
3.94921875000,1.779,8.522,
3.95312500000,1.788,8.671,
3.95703125000,1.796,8.807,
3.96093750000,1.804,8.930,
3.96484375000,1.810,9.041,
3.96875000000,1.816,9.142,
3.97265625000,1.822,9.234,
3.97656250000,1.827,9.317,
3.98046875000,1.831,9.392,
3.98437500000,1.835,9.443,
3.98828125000,1.830,9.372,
3.99218750000,1.826,9.309,
3.99609375000,1.823,9.251,
4.00000000000,1.820,9.199,
4.00390625000,1.817,9.152,
4.00781250000,1.814,9.109,
4.01171875000,1.812,9.070,
4.01562500000,1.810,9.035,
4.01953125000,1.808,9.003,
4.02343750000,1.806,8.974,
4.02734375000,1.805,8.948,
4.03125000000,1.803,8.924,
4.03515625000,1.786,8.816,
4.03906250000,1.746,8.581,
4.04296875000,1.710,8.369,
4.04687500000,1.677,8.176,
4.05078125000,1.647,8.001,
4.05468750000,1.620,7.843,
4.05859375000,1.596,7.699,
4.06250000000,1.573,7.569,
4.06640625000,1.553,7.451,
4.07031250000,1.535,7.344,
4.07421875000,1.519,7.247,
4.07812500000,1.504,7.159,
4.08203125000,1.490,7.080,
4.08593750000,1.534,7.423,
4.08984375000,1.607,7.971,
4.09375000000,1.673,8.468,
4.09765625000,1.733,8.918,
4.10156250000,1.787,9.327,
4.10546875000,1.836,9.697,
4.10937500000,1.881,10.032,
4.11328125000,1.921,10.336,
4.11718750000,1.957,10.612,
4.12109375000,1.991,10.861,
4.12500000000,2.021,11.088,
4.12890625000,2.048,11.293,
4.13281250000,2.072,11.479,
4.13671875000,2.016,12.000,
4.14062500000,1.954,12.520,
4.14453125000,1.897,12.991,
4.14843750000,1.846,13.418,
4.15234375000,1.800,13.805,
4.15625000000,1.758,14.156,
4.16015625000,1.720,14.474,
4.16406250000,1.685,14.762,
4.16796875000,1.654,15.024,
4.17187500000,1.626,15.261,
4.17578125000,1.600,15.475,
4.17968750000,1.577,15.670,
4.18359375000,1.556,15.847,
4.18750000000,1.542,16.009,
4.19140625000,1.529,16.156,
4.19531250000,1.518,16.289,
4.19921875000,1.507,16.410,
4.20312500000,1.497,16.520,
4.20703125000,1.489,16.619,
4.21093750000,1.481,16.709,
4.21484375000,1.474,16.790,
4.21875000000,1.467,16.864,
4.22265625000,1.462,16.931,
4.22656250000,1.456,16.992,
4.23046875000,1.451,17.047,
4.23437500000,1.450,16.751,
4.23828125000,1.455,15.935,
4.24218750000,1.459,15.195,
4.24609375000,1.462,14.524,
4.25000000000,1.465,13.916,
4.25390625000,1.468,13.365,
4.25781250000,1.471,12.865,
4.26171875000,1.473,12.412,
4.26562500000,1.475,12.002,
4.26953125000,1.477,11.630,
4.27343750000,1.479,11.292,
4.27734375000,1.481,10.987,
4.28125000000,1.482,10.710,
4.28515625000,1.530,10.541,
4.28906250000,1.599,10.435,
4.29296875000,1.661,10.340,
4.29687500000,1.718,10.253,
4.30078125000,1.770,10.174,
4.30468750000,1.817,10.103,
4.30859375000,1.859,10.038,
4.31250000000,1.897,9.980,
4.31640625000,1.932,9.927,
4.32031250000,1.964,9.879,
4.32421875000,1.992,9.835,
4.32812500000,2.018,9.795,
4.33203125000,2.042,9.760,
4.33593750000,2.044,9.541,
4.33984375000,2.043,9.317,
4.34375000000,2.042,9.114,
4.34765625000,2.042,8.930,
4.35156250000,2.041,8.763,
4.35546875000,2.041,8.612,
4.35937500000,2.040,8.475,
4.36328125000,2.040,8.351,
4.36718750000,2.039,8.239,
4.37109375000,2.039,8.137,
4.37500000000,2.039,8.044,
4.37890625000,2.039,7.960,
4.38281250000,2.035,7.891,
4.38671875000,2.009,7.869,
4.39062500000,1.986,7.850,
4.39453125000,1.965,7.832,
4.39843750000,1.946,7.816,
4.40234375000,1.929,7.802,
4.40625000000,1.914,7.789,
4.41015625000,1.900,7.777,
4.41406250000,1.887,7.766,
4.41796875000,1.875,7.756,
4.42187500000,1.865,7.748,
4.42578125000,1.855,7.740,
4.42968750000,1.846,7.732,
4.43359375000,1.839,7.874,
4.43750000000,1.834,8.239,
4.44140625000,1.829,8.570,
4.44531250000,1.825,8.869,
4.44921875000,1.821,9.141,
4.45312500000,1.818,9.387,
4.45703125000,1.815,9.610,
4.46093750000,1.812,9.813,
4.46484375000,1.809,9.996,
4.46875000000,1.807,10.162,
4.47265625000,1.804,10.313,
4.47656250000,1.802,10.449,
4.48046875000,1.801,10.573,
4.48437500000,1.804,10.645,
4.48828125000,1.809,10.687,
4.49218750000,1.813,10.725,
4.49609375000,1.817,10.760,
4.50000000000,1.821,10.791,
4.50390625000,1.824,10.819,
4.50781250000,1.828,10.845,
4.51171875000,1.830,10.868,
4.51562500000,1.833,10.890,
4.51953125000,1.835,10.909,
4.52343750000,1.837,10.926,
4.52734375000,1.839,10.942,
4.53125000000,1.841,10.956,
4.53515625000,1.835,10.929,
4.53906250000,1.828,10.900,
4.54296875000,1.822,10.873,
4.54687500000,1.817,10.848,
4.55078125000,1.812,10.826,
4.55468750000,1.808,10.806,
4.55859375000,1.804,10.788,
4.56250000000,1.800,10.771,
4.56640625000,1.797,10.756,
4.57031250000,1.794,10.743,
4.57421875000,1.791,10.731,
4.57812500000,1.789,10.719,
4.58203125000,1.784,10.640,
4.58593750000,1.765,10.109,
4.58984375000,1.747,9.627,
4.59375000000,1.731,9.190,
4.59765625000,1.717,8.794,
4.60156250000,1.704,8.435,
4.60546875000,1.692,8.110,
4.60937500000,1.681,7.815,
4.61328125000,1.671,7.548,
4.61718750000,1.662,7.305,
4.62109375000,1.654,7.086,
4.62500000000,1.647,6.887,
4.62890625000,1.640,6.706,
4.63281250000,1.632,6.792,
4.63671875000,1.620,7.265,
4.64062500000,1.610,7.695,
4.64453125000,1.600,8.083,
4.64843750000,1.592,8.436,
4.65234375000,1.584,8.755,
4.65625000000,1.577,9.045,
4.66015625000,1.570,9.308,
4.66406250000,1.565,9.545,
4.66796875000,1.559,9.761,
4.67187500000,1.554,9.957,
4.67578125000,1.550,10.134,
4.67968750000,1.546,10.294,
4.68359375000,1.596,10.081,
4.68750000000,1.671,9.684,
4.69140625000,1.739,9.323,
4.69531250000,1.801,8.996,
4.69921875000,1.857,8.700,
4.70312500000,1.908,8.431,
4.70703125000,1.954,8.188,
4.71093750000,1.995,7.967,
4.71484375000,2.033,7.767,
4.71875000000,2.067,7.586,
4.72265625000,2.098,7.421,
4.72656250000,2.126,7.272,
4.73046875000,2.152,7.137,
4.73437500000,2.164,7.163,
4.73828125000,2.173,7.207,
4.74218750000,2.182,7.247,
4.74609375000,2.189,7.283,
4.75000000000,2.196,7.315,
4.75390625000,2.202,7.345,
4.75781250000,2.208,7.372,
4.76171875000,2.213,7.396,
4.76562500000,2.218,7.418,
4.76953125000,2.222,7.438,
4.77343750000,2.226,7.456,
4.77734375000,2.230,7.472,
4.78125000000,2.224,7.460,
4.78515625000,2.164,7.265,
4.78906250000,2.109,7.088,
4.79296875000,2.060,6.928,
4.79687500000,2.015,6.782,
4.80078125000,1.974,6.651,
4.80468750000,1.937,6.532,
4.80859375000,1.903,6.423,
4.81250000000,1.873,6.325,
4.81640625000,1.845,6.237,
4.82031250000,1.820,6.156,
4.82421875000,1.798,6.083,
4.82812500000,1.777,6.017,
4.83203125000,1.773,6.476,
4.83593750000,1.793,7.718,
4.83984375000,1.811,8.843,
4.84375000000,1.827,9.863,
4.84765625000,1.841,10.787,
4.85156250000,1.854,11.625,
4.85546875000,1.866,12.385,
4.85937500000,1.877,13.073,
4.86328125000,1.887,13.697,
4.86718750000,1.896,14.263,
4.87109375000,1.904,14.775,
4.87500000000,1.911,15.240,
4.87890625000,1.918,15.661,
4.88281250000,1.900,16.110,
4.88671875000,1.869,16.554,
4.89062500000,1.842,16.957,
4.89453125000,1.817,17.323,
4.89843750000,1.794,17.654,
4.90234375000,1.773,17.954,
4.90625000000,1.755,18.226,
4.91015625000,1.738,18.473,
4.91406250000,1.723,18.696,
4.91796875000,1.709,18.899,
4.92187500000,1.696,19.082,
4.92578125000,1.685,19.249,
4.92968750000,1.675,19.400,
4.93359375000,1.680,18.529,
4.93750000000,1.686,17.603,
4.94140625000,1.692,16.763,
4.94531250000,1.697,16.002,
4.94921875000,1.702,15.313,
4.95312500000,1.706,14.687,
4.95703125000,1.710,14.121,
4.96093750000,1.714,13.607,
4.96484375000,1.717,13.141,
4.96875000000,1.720,12.719,
4.97265625000,1.723,12.337,
4.97656250000,1.725,11.990,
4.98046875000,1.725,11.656,
4.98437500000,1.707,11.217,
4.98828125000,1.691,10.820,
4.99218750000,1.676,10.460,
4.99609375000,1.663,10.134,
5.00000000000,1.651,9.838,
5.00390625000,1.640,9.570,
5.00781250000,1.630,9.328,
5.01171875000,1.621,9.107,
5.01562500000,1.613,8.908,
5.01953125000,1.605,8.727,
5.02343750000,1.599,8.563,
5.02734375000,1.592,8.414,
5.03125000000,1.584,8.431,
5.03515625000,1.571,8.686,
5.03906250000,1.560,8.918,
5.04296875000,1.550,9.127,
5.04687500000,1.540,9.318,
5.05078125000,1.532,9.490,
5.05468750000,1.524,9.646,
5.05859375000,1.517,9.788,
5.06250000000,1.511,9.916,
5.06640625000,1.505,10.033,
5.07031250000,1.500,10.138,
5.07421875000,1.495,10.234,
5.07812500000,1.491,10.320,
5.08203125000,1.511,10.191,
5.08593750000,1.543,9.955,
5.08984375000,1.572,9.742,
5.09375000000,1.599,9.548,
5.09765625000,1.622,9.372,
5.10156250000,1.644,9.213,
5.10546875000,1.664,9.069,
5.10937500000,1.681,8.938,
5.11328125000,1.698,8.820,
5.11718750000,1.712,8.712,
5.12109375000,1.725,8.615,
5.12500000000,1.737,8.527,
5.12890625000,1.748,8.447,
5.13281250000,1.770,8.500,
5.13671875000,1.792,8.565,
5.14062500000,1.812,8.624,
5.14453125000,1.830,8.677,
5.14843750000,1.846,8.726,
5.15234375000,1.861,8.770,
5.15625000000,1.874,8.810,
5.16015625000,1.886,8.846,
5.16406250000,1.897,8.878,
5.16796875000,1.907,8.908,
5.17187500000,1.916,8.935,
5.17578125000,1.925,8.959,
5.17968750000,1.924,8.990,
5.18359375000,1.867,9.079,
5.18750000000,1.816,9.159,
5.19140625000,1.770,9.232,
5.19531250000,1.728,9.298,
5.19921875000,1.690,9.358,
5.20312500000,1.656,9.412,
5.20703125000,1.624,9.461,
5.21093750000,1.596,9.505,
5.21484375000,1.570,9.546,
5.21875000000,1.547,9.582,
5.22265625000,1.526,9.615,
5.22656250000,1.507,9.645,
5.23046875000,1.484,9.624,
5.23437500000,1.456,9.526,
5.23828125000,1.429,9.438,
5.24218750000,1.406,9.358,
5.24609375000,1.384,9.286,
5.25000000000,1.364,9.220,
5.25390625000,1.347,9.161,
5.25781250000,1.331,9.107,
5.26171875000,1.316,9.058,
5.26562500000,1.303,9.014,
5.26953125000,1.291,8.974,
5.27343750000,1.280,8.937,
5.27734375000,1.270,8.904,
5.28125000000,1.309,8.869,
5.28515625000,1.370,8.835,
5.28906250000,1.426,8.804,
5.29296875000,1.476,8.775,
5.29687500000,1.522,8.750,
5.30078125000,1.563,8.727,
5.30468750000,1.601,8.705,
5.30859375000,1.635,8.686,
5.31250000000,1.666,8.669,
5.31640625000,1.694,8.653,
5.32031250000,1.719,8.639,
5.32421875000,1.742,8.626,
5.32812500000,1.763,8.615,
5.33203125000,1.800,8.796,
5.33593750000,1.835,8.986,
5.33984375000,1.868,9.158,
5.34375000000,1.897,9.314,
5.34765625000,1.923,9.456,
5.35156250000,1.948,9.584,
5.35546875000,1.969,9.700,
5.35937500000,1.989,9.806,
5.36328125000,2.007,9.901,
5.36718750000,2.023,9.988,
5.37109375000,2.038,10.066,
5.37500000000,2.051,10.137,
5.37890625000,2.054,10.192,
5.38281250000,1.992,10.179,
5.38671875000,1.937,10.167,
5.39062500000,1.886,10.156,
5.39453125000,1.841,10.146,
5.39843750000,1.799,10.138,
5.40234375000,1.761,10.129,
5.40625000000,1.727,10.122,
5.41015625000,1.697,10.115,
5.41406250000,1.669,10.109,
5.41796875000,1.643,10.104,
5.42187500000,1.620,10.099,
5.42578125000,1.599,10.094,
5.42968750000,1.575,9.989,
5.43359375000,1.545,9.733,
5.43750000000,1.517,9.500,
5.44140625000,1.492,9.290,
5.44531250000,1.469,9.099,
5.44921875000,1.448,8.926,
5.45312500000,1.430,8.769,
5.45703125000,1.413,8.627,
5.46093750000,1.398,8.498,
5.46484375000,1.384,8.381,
5.46875000000,1.371,8.275,
5.47265625000,1.360,8.179,
5.47656250000,1.349,8.092,
5.48046875000,1.342,8.351,
5.48437500000,1.336,8.779,
5.48828125000,1.331,9.167,
5.49218750000,1.327,9.519,
5.49609375000,1.323,9.837,
5.50000000000,1.319,10.126,
5.50390625000,1.316,10.388,
5.50781250000,1.313,10.625,
5.51171875000,1.310,10.840,
5.51562500000,1.307,11.035,
5.51953125000,1.305,11.212,
5.52343750000,1.303,11.372,
5.52734375000,1.301,11.518,
5.53125000000,1.353,13.202,
5.53515625000,1.407,14.939,
5.53906250000,1.456,16.514,
5.54296875000,1.500,17.942,
5.54687500000,1.540,19.236,
5.55078125000,1.576,20.409,
5.55468750000,1.609,21.472,
5.55859375000,1.639,22.436,
5.56250000000,1.666,23.309,
5.56640625000,1.691,24.101,
5.57031250000,1.713,24.819,
5.57421875000,1.734,25.469,
5.57812500000,1.751,25.914,
5.58203125000,1.762,25.355,
5.58593750000,1.772,24.847,
5.58984375000,1.781,24.388,
5.59375000000,1.789,23.971,
5.59765625000,1.797,23.593,
5.60156250000,1.804,23.250,
5.60546875000,1.810,22.940,
5.60937500000,1.815,22.659,
5.61328125000,1.820,22.404,
5.61718750000,1.825,22.172,
5.62109375000,1.829,21.963,
5.62500000000,1.833,21.773,
5.62890625000,1.814,21.297,
5.63281250000,1.761,20.384,
5.63671875000,1.713,19.556,
5.64062500000,1.670,18.806,
5.64453125000,1.630,18.126,
5.64843750000,1.595,17.510,
5.65234375000,1.562,16.951,
5.65625000000,1.533,16.445,
5.66015625000,1.506,15.986,
5.66406250000,1.482,15.570,
5.66796875000,1.460,15.193,
5.67187500000,1.441,14.851,
5.67578125000,1.423,14.541,
5.67968750000,1.422,14.094,
5.68359375000,1.429,13.593,
5.68750000000,1.436,13.140,
5.69140625000,1.443,12.728,
5.69531250000,1.448,12.356,
5.69921875000,1.454,12.018,
5.70312500000,1.458,11.712,
5.70703125000,1.463,11.434,
5.71093750000,1.467,11.183,
5.71484375000,1.470,10.955,
5.71875000000,1.473,10.748,
5.72265625000,1.476,10.561,
5.72656250000,1.479,10.391,
5.73046875000,1.541,10.034,
5.73437500000,1.605,9.683,
5.73828125000,1.664,9.365,
5.74218750000,1.717,9.076,
5.74609375000,1.765,8.815,
5.75000000000,1.808,8.578,
5.75390625000,1.848,8.363,
5.75781250000,1.884,8.169,
5.76171875000,1.916,7.992,
5.76562500000,1.945,7.832,
5.76953125000,1.972,7.687,
5.77343750000,1.996,7.556,
5.77734375000,2.018,7.588,
5.78125000000,2.041,8.622,
5.78515625000,2.061,9.559,
5.78906250000,2.080,10.409,
5.79296875000,2.097,11.179,
5.79687500000,2.112,11.877,
5.80078125000,2.126,12.509,
5.80468750000,2.138,13.083,
5.80859375000,2.150,13.603,
5.81250000000,2.160,14.074,
5.81640625000,2.169,14.501,
5.82031250000,2.178,14.888,
5.82421875000,2.185,15.239,
5.82812500000,2.192,15.233,
5.83203125000,2.197,14.715,
5.83593750000,2.202,14.244,
5.83984375000,2.206,13.818,
5.84375000000,2.210,13.432,
5.84765625000,2.214,13.082,
5.85156250000,2.217,12.764,
5.85546875000,2.220,12.477,
5.85937500000,2.223,12.216,
5.86328125000,2.225,11.980,
5.86718750000,2.227,11.765,
5.87109375000,2.229,11.571,
5.87500000000,2.231,11.395,
5.87890625000,2.199,11.300,
5.88281250000,2.150,11.251,
5.88671875000,2.105,11.206,
5.89062500000,2.065,11.165,
5.89453125000,2.028,11.129,
5.89843750000,1.995,11.095,
5.90234375000,1.965,11.065,
5.90625000000,1.938,11.038,
5.91015625000,1.914,11.013,
5.91406250000,1.891,10.991,
5.91796875000,1.871,10.970,
5.92187500000,1.853,10.952,
5.92578125000,1.836,10.935,
5.92968750000,1.884,11.040,
5.93359375000,1.935,11.152,
5.93750000000,1.982,11.253,
5.94140625000,2.025,11.344,
5.94531250000,2.063,11.427,
5.94921875000,2.098,11.503,
5.95312500000,2.130,11.571,
5.95703125000,2.158,11.633,
5.96093750000,2.184,11.689,
5.96484375000,2.208,11.740,
5.96875000000,2.229,11.786,
5.97265625000,2.249,11.828,
5.97656250000,2.263,11.809,
5.98046875000,2.254,11.417,
5.98437500000,2.246,11.062,
5.98828125000,2.238,10.740,
5.99218750000,2.232,10.449,
5.99609375000,2.226,10.184,
6.00000000000,2.220,9.945,
6.00390625000,2.215,9.727,
6.00781250000,2.211,9.530,
6.01171875000,2.207,9.352,
6.01562500000,2.203,9.190,
6.01953125000,2.200,9.043,
6.02343750000,2.196,8.910,
6.02734375000,2.199,8.664,
6.03125000000,2.210,8.239,
6.03515625000,2.220,7.855,
6.03906250000,2.229,7.507,
6.04296875000,2.237,7.191,
6.04687500000,2.245,6.904,
6.05078125000,2.251,6.645,
6.05468750000,2.257,6.410,
6.05859375000,2.263,6.196,
6.06250000000,2.268,6.003,
6.06640625000,2.272,5.828,
6.07031250000,2.276,5.669,
6.07421875000,2.280,5.525,
6.07812500000,2.250,5.542,
6.08203125000,2.205,5.641,
6.08593750000,2.163,5.731,
6.08984375000,2.126,5.812,
6.09375000000,2.091,5.886,
6.09765625000,2.061,5.953,
6.10156250000,2.033,6.014,
6.10546875000,2.007,6.069,
6.10937500000,1.984,6.119,
6.11328125000,1.963,6.164,
6.11718750000,1.944,6.205,
6.12109375000,1.927,6.242,
6.12500000000,1.912,6.276,
6.12890625000,1.942,6.076,
6.13281250000,1.975,5.864,
6.13671875000,2.005,5.672,
6.14062500000,2.033,5.497,
6.14453125000,2.057,5.339,
6.14843750000,2.080,5.196,
6.15234375000,2.100,5.066,
6.15625000000,2.119,4.949,
6.16015625000,2.135,4.842,
6.16406250000,2.150,4.745,
6.16796875000,2.164,4.658,
6.17187500000,2.177,4.578,
6.17578125000,2.188,4.540,
6.17968750000,2.201,4.732,
6.18359375000,2.213,4.905,
6.18750000000,2.224,5.063,
6.19140625000,2.233,5.205,
6.19531250000,2.242,5.334,
6.19921875000,2.250,5.451,
6.20312500000,2.257,5.558,
6.20703125000,2.264,5.654,
6.21093750000,2.270,5.741,
6.21484375000,2.275,5.820,
6.21875000000,2.280,5.892,
6.22265625000,2.285,5.957,
6.22656250000,2.277,6.781,
6.23046875000,2.250,8.741,
6.23437500000,2.227,10.518,
6.23828125000,2.205,12.129,
6.24218750000,2.186,13.589,
6.24609375000,2.168,14.913,
6.25000000000,2.152,16.112,
6.25390625000,2.138,17.199,
6.25781250000,2.125,18.185,
6.26171875000,2.113,19.078,
6.26562500000,2.102,19.888,
6.26953125000,2.092,20.622,
6.27343750000,2.083,21.287,
6.27734375000,2.112,21.181,
6.28125000000,2.159,20.680,
6.28515625000,2.201,20.226,
6.28906250000,2.239,19.815,
6.29296875000,2.274,19.442,
6.29687500000,2.306,19.104,
6.30078125000,2.335,18.797,
6.30468750000,2.360,18.519,
6.30859375000,2.384,18.268,
6.31250000000,2.405,18.039,
6.31640625000,2.425,17.832,
6.32031250000,2.442,17.645,
6.32421875000,2.458,17.475,
6.32812500000,2.401,17.042,
6.33203125000,2.340,16.612,
6.33593750000,2.285,16.222,
6.33984375000,2.235,15.869,
6.34375000000,2.189,15.548,
6.34765625000,2.148,15.258,
6.35156250000,2.111,14.995,
6.35546875000,2.077,14.756,
6.35937500000,2.046,14.540,
6.36328125000,2.018,14.344,
6.36718750000,1.993,14.167,
6.37109375000,1.970,14.006,
6.37500000000,1.962,13.742,
6.37890625000,2.034,12.719,
6.38281250000,2.099,11.792,
6.38671875000,2.158,10.952,
6.39062500000,2.212,10.190,
6.39453125000,2.261,9.500,
6.39843750000,2.305,8.874,
6.40234375000,2.345,8.306,
6.40625000000,2.381,7.792,
6.41015625000,2.414,7.326,
6.41406250000,2.444,6.904,
6.41796875000,2.471,6.521,
6.42187500000,2.495,6.174,
6.42578125000,2.504,5.857,
6.42968750000,2.491,5.566,
6.43359375000,2.480,5.302,
6.43750000000,2.469,5.063,
6.44140625000,2.459,4.846,
6.44531250000,2.451,4.650,
6.44921875000,2.443,4.472,
6.45312500000,2.436,4.311,
6.45703125000,2.429,4.164,
6.46093750000,2.423,4.032,
6.46484375000,2.418,3.912,
6.46875000000,2.413,3.803,
6.47265625000,2.409,3.704,
6.47656250000,3.235,3.607,
6.48046875000,4.459,3.516,
6.48437500000,5.568,3.433,
6.48828125000,6.573,3.358,
6.49218750000,7.485,3.290,
6.49609375000,8.311,3.228,
6.50000000000,9.059,3.172,
6.50390625000,9.738,3.122,
6.50781250000,10.353,3.076,
6.51171875000,10.911,3.034,
6.51562500000,11.416,2.996,
6.51953125000,11.874,2.962,
6.52343750000,12.289,2.931,
6.52734375000,12.072,2.851,
6.53125000000,11.795,2.772,
6.53515625000,11.543,2.701,
6.53906250000,11.315,2.636,
6.54296875000,11.109,2.577,
6.54687500000,10.921,2.523,
6.55078125000,10.752,2.475,
6.55468750000,10.598,2.431,
6.55859375000,10.458,2.391,
6.56250000000,10.332,2.355,
6.56640625000,10.217,2.322,
6.57031250000,10.113,2.293,
6.57421875000,10.123,2.286,
6.57812500000,10.820,2.413,
6.58203125000,11.451,2.528,
6.58593750000,12.024,2.632,
6.58984375000,12.543,2.727,
6.59375000000,13.013,2.813,
6.59765625000,13.440,2.890,
6.60156250000,13.826,2.961,
6.60546875000,14.177,3.025,
6.60937500000,14.494,3.083,
6.61328125000,14.782,3.135,
6.61718750000,15.043,3.183,
6.62109375000,15.280,3.226,
6.62500000000,15.527,3.404,
6.62890625000,15.803,3.787,
6.63281250000,16.054,4.135,
6.63671875000,16.281,4.450,
6.64062500000,16.487,4.735,
6.64453125000,16.674,4.994,
6.64843750000,16.843,5.228,
6.65234375000,16.996,5.441,
6.65625000000,17.135,5.633,
6.66015625000,17.261,5.808,
6.66406250000,17.376,5.966,
6.66796875000,17.479,6.110,
6.67187500000,17.573,6.240,
6.67578125000,16.674,6.431,
6.67968750000,15.296,6.647,
6.68359375000,14.048,6.842,
6.68750000000,12.916,7.019,
6.69140625000,11.891,7.180,
6.69531250000,10.961,7.325,
6.69921875000,10.118,7.457,
6.70312500000,9.354,7.577,
6.70703125000,8.662,7.685,
6.71093750000,8.034,7.783,
6.71484375000,7.465,7.872,
6.71875000000,6.950,7.953,
6.72265625000,6.482,8.026,
6.72656250000,6.156,8.280,
6.73046875000,5.873,8.535,
6.73437500000,5.617,8.766,
6.73828125000,5.384,8.975,
6.74218750000,5.174,9.165,
6.74609375000,4.983,9.337,
6.75000000000,4.810,9.493,
6.75390625000,4.653,9.634,
6.75781250000,4.511,9.763,
6.76171875000,4.382,9.879,
6.76562500000,4.265,9.984,
6.76953125000,4.159,10.080,
6.77343750000,4.084,10.080,
6.77734375000,4.156,9.507,
6.78125000000,4.222,8.988,
6.78515625000,4.281,8.517,
6.78906250000,4.334,8.091,
6.79296875000,4.383,7.704,
6.79687500000,4.427,7.354,
6.80078125000,4.467,7.036,
6.80468750000,4.503,6.748,
6.80859375000,4.536,6.487,
6.81250000000,4.565,6.250,
6.81640625000,4.592,6.036,
6.82031250000,4.617,5.842,
6.82421875000,5.069,5.617,
6.82812500000,6.161,5.338,
6.83203125000,7.151,5.085,
6.83593750000,8.049,4.855,
6.83984375000,8.862,4.647,
6.84375000000,9.599,4.459,
6.84765625000,10.268,4.288,
6.85156250000,10.873,4.133,
6.85546875000,11.423,3.992,
6.85937500000,11.920,3.865,
6.86328125000,12.371,3.750,
6.86718750000,12.780,3.645,
6.87109375000,13.151,3.550,
6.87500000000,12.734,3.535,
6.87890625000,11.925,3.561,
6.88281250000,11.193,3.585,
6.88671875000,10.529,3.606,
6.89062500000,9.927,3.626,
6.89453125000,9.381,3.643,
6.89843750000,8.887,3.659,
6.90234375000,8.439,3.674,
6.90625000000,8.032,3.687,
6.91015625000,7.664,3.699,
6.91406250000,7.330,3.709,
6.91796875000,7.028,3.719,
6.92187500000,6.753,3.728,
6.92578125000,6.963,3.738,
6.92968750000,7.215,3.747,
6.93359375000,7.443,3.755,
6.93750000000,7.650,3.762,
6.94140625000,7.837,3.769,
6.94531250000,8.007,3.775,
6.94921875000,8.162,3.780,
6.95312500000,8.301,3.785,
6.95703125000,8.428,3.790,
6.96093750000,8.543,3.794,
6.96484375000,8.647,3.797,
6.96875000000,8.741,3.801,
6.97265625000,8.895,4.018,
6.97656250000,9.495,5.647,
6.98046875000,10.038,7.123,
6.98437500000,10.531,8.460,
6.98828125000,10.977,9.673,
6.99218750000,11.382,10.772,
6.99609375000,11.749,11.768,
7.00000000000,12.081,12.671,
7.00390625000,12.383,13.490,
7.00781250000,12.656,14.232,
7.01171875000,12.904,14.904,
7.01562500000,13.128,15.514,
7.01953125000,13.331,16.066,
7.02343750000,13.141,16.383,
7.02734375000,12.372,16.377,
7.03125000000,11.675,16.372,
7.03515625000,11.044,16.368,
7.03906250000,10.471,16.364,
7.04296875000,9.953,16.360,
7.04687500000,9.482,16.356,
7.05078125000,9.056,16.353,
7.05468750000,8.670,16.351,
7.05859375000,8.319,16.348,
7.06250000000,8.002,16.346,
7.06640625000,7.714,16.344,
7.07031250000,7.454,16.342,
7.07421875000,7.409,16.904,
7.07812500000,7.477,17.736,
7.08203125000,7.539,18.491,
7.08593750000,7.596,19.174,
7.08984375000,7.647,19.794,
7.09375000000,7.693,20.355,
7.09765625000,7.735,20.864,
7.10156250000,7.773,21.326,
7.10546875000,7.808,21.744,
7.10937500000,7.839,22.123,
7.11328125000,7.867,22.467,
7.11718750000,7.893,22.778,
7.12109375000,7.916,23.060,
7.12500000000,8.170,23.359,
7.12890625000,8.431,23.635,
7.13281250000,8.668,23.886,
7.13671875000,8.883,24.113,
7.14062500000,9.077,24.319,
7.14453125000,9.254,24.505,
7.14843750000,9.413,24.674,
7.15234375000,9.558,24.828,
7.15625000000,9.690,24.967,
7.16015625000,9.809,25.093,
7.16406250000,9.917,25.207,
7.16796875000,10.015,25.310,
7.17187500000,10.147,25.195,
7.17578125000,10.559,23.699,
7.17968750000,10.932,22.342,
7.18359375000,11.271,21.112,
7.18750000000,11.577,19.998,
7.19140625000,11.855,18.987,
7.19531250000,12.107,18.072,
7.19921875000,12.336,17.242,
7.20312500000,12.543,16.489,
7.20703125000,12.731,15.807,
7.21093750000,12.901,15.189,
7.21484375000,13.055,14.629,
7.21875000000,13.195,14.121,
7.22265625000,13.100,13.448,
7.22656250000,12.663,12.501,
7.23046875000,12.267,11.642,
7.23437500000,11.908,10.863,
7.23828125000,11.583,10.157,
7.24218750000,11.288,9.518,
7.24609375000,11.020,8.938,
7.25000000000,10.778,8.412,
7.25390625000,10.558,7.936,
7.25781250000,10.359,7.504,
7.26171875000,10.179,7.113,
7.26562500000,10.015,6.758,
7.26953125000,9.867,6.436,
7.27343750000,9.899,6.080,
7.27734375000,10.023,5.721,
7.28125000000,10.135,5.395,
7.28515625000,10.236,5.100,
7.28906250000,10.328,4.832,
7.29296875000,10.412,4.589,
7.29687500000,10.487,4.369,
7.30078125000,10.556,4.170,
7.30468750000,10.618,3.989,
7.30859375000,10.674,3.825,
7.31250000000,10.725,3.677,
7.31640625000,10.772,3.542,
7.32031250000,10.814,3.420,
7.32421875000,10.382,3.429,
7.32812500000,9.926,3.454,
7.33203125000,9.514,3.476,
7.33593750000,9.139,3.497,
7.33984375000,8.800,3.515,
7.34375000000,8.493,3.532,
7.34765625000,8.214,3.547,
7.35156250000,7.962,3.560,
7.35546875000,7.733,3.573,
7.35937500000,7.525,3.584,
7.36328125000,7.337,3.594,
7.36718750000,7.167,3.603,
7.37109375000,7.157,3.593,
7.37500000000,8.116,3.458,
7.37890625000,8.985,3.335,
7.38281250000,9.773,3.224,
7.38671875000,10.487,3.123,
7.39062500000,11.135,3.032,
7.39453125000,11.722,2.949,
7.39843750000,12.253,2.874,
7.40234375000,12.735,2.806,
7.40625000000,13.172,2.744,
7.41015625000,13.568,2.689,
7.41406250000,13.927,2.638,
7.41796875000,14.253,2.592,
7.42187500000,14.196,2.548,
7.42578125000,13.586,2.505,
7.42968750000,13.033,2.465,
7.43359375000,12.531,2.430,
7.43750000000,12.077,2.397,
7.44140625000,11.665,2.368,
7.44531250000,11.292,2.341,
7.44921875000,10.954,2.317,
7.45312500000,10.647,2.295,
7.45703125000,10.369,2.276,
7.46093750000,10.117,2.258,
7.46484375000,9.889,2.241,
7.46875000000,9.682,2.227,
7.47265625000,9.716,2.240,
7.47656250000,9.875,2.268,
7.48046875000,10.019,2.292,
7.48437500000,10.149,2.315,
7.48828125000,10.267,2.335,
7.49218750000,10.374,2.354,
7.49609375000,10.471,2.371,
7.50000000000,10.559,2.386,
7.50390625000,10.639,2.400,
7.50781250000,10.711,2.412,
7.51171875000,10.777,2.424,
7.51562500000,10.836,2.434,
7.51953125000,10.890,2.443,
7.52343750000,10.572,2.540,
7.52734375000,10.234,2.639,
7.53125000000,9.927,2.729,
7.53515625000,9.649,2.810,
7.53906250000,9.397,2.884,
7.54296875000,9.169,2.951,
7.54687500000,8.962,3.012,
7.55078125000,8.775,3.067,
7.55468750000,8.605,3.117,
7.55859375000,8.450,3.162,
7.56250000000,8.311,3.203,
7.56640625000,8.184,3.240,
7.57031250000,8.142,3.262,
7.57421875000,8.584,3.203,
7.57812500000,8.986,3.150,
7.58203125000,9.350,3.101,
7.58593750000,9.680,3.058,
7.58984375000,9.979,3.018,
7.59375000000,10.250,2.982,
7.59765625000,10.495,2.949,
7.60156250000,10.718,2.920,
7.60546875000,10.920,2.893,
7.60937500000,11.102,2.869,
7.61328125000,11.268,2.847,
7.61718750000,11.419,2.827,
7.62109375000,11.362,2.810,
7.62500000000,11.005,2.796,
7.62890625000,10.681,2.783,
7.63281250000,10.388,2.772,
7.63671875000,10.122,2.761,
7.64062500000,9.881,2.752,
7.64453125000,9.662,2.743,
7.64843750000,9.464,2.735,
7.65234375000,9.285,2.728,
7.65625000000,9.122,2.722,
7.66015625000,8.975,2.716,
7.66406250000,8.841,2.711,
7.66796875000,8.720,2.706,
7.67187500000,8.734,3.053,
7.67578125000,8.819,3.568,
7.67968750000,8.895,4.035,
7.68359375000,8.964,4.458,
7.68750000000,9.027,4.842,
7.69140625000,9.084,5.190,
7.69531250000,9.136,5.505,
7.69921875000,9.182,5.791,
7.70312500000,9.225,6.050,
7.70703125000,9.263,6.284,
7.71093750000,9.298,6.497,
7.71484375000,9.330,6.690,
7.71875000000,9.358,6.865,
7.72265625000,9.427,7.819,
7.72656250000,9.495,8.792,
7.73046875000,9.557,9.674,
7.73437500000,9.613,10.474,
7.73828125000,9.664,11.199,
7.74218750000,9.710,11.856,
7.74609375000,9.751,12.451,
7.75000000000,9.789,12.991,
7.75390625000,9.823,13.480,
7.75781250000,9.854,13.924,
7.76171875000,9.883,14.326,
7.76562500000,9.908,14.690,
7.76953125000,9.911,14.928,
7.77343750000,9.777,14.526,
7.77734375000,9.656,14.162,
7.78125000000,9.547,13.832,
7.78515625000,9.447,13.534,
7.78906250000,9.357,13.263,
7.79296875000,9.276,13.017,
7.79687500000,9.202,12.794,
7.80078125000,9.135,12.592,
7.80468750000,9.074,12.410,
7.80859375000,9.019,12.244,
7.81250000000,8.969,12.094,
7.81640625000,8.923,11.957,
7.82031250000,8.961,11.571,
7.82421875000,9.118,10.804,
7.82812500000,9.261,10.109,
7.83203125000,9.391,9.479,
7.83593750000,9.508,8.908,
7.83984375000,9.615,8.391,
7.84375000000,9.712,7.922,
7.84765625000,9.799,7.496,
7.85156250000,9.878,7.111,
7.85546875000,9.950,6.761,
7.85937500000,10.015,6.445,
7.86328125000,10.074,6.158,
7.86718750000,10.128,5.898,
7.87109375000,10.531,5.614,
7.87500000000,11.100,5.330,
7.87890625000,11.615,5.073,
7.88281250000,12.082,4.839,
7.88671875000,12.505,4.628,
7.89062500000,12.889,4.436,
7.89453125000,13.237,4.262,
7.89843750000,13.552,4.104,
7.90234375000,13.838,3.962,
7.90625000000,14.097,3.832,
7.91015625000,14.332,3.715,
7.91406250000,14.544,3.609,
7.91796875000,14.737,3.512,
7.92187500000,14.562,3.361,
7.92578125000,14.357,3.216,
7.92968750000,14.170,3.084,
7.93359375000,14.001,2.964,
7.93750000000,13.847,2.855,
7.94140625000,13.708,2.757,
7.94531250000,13.582,2.668,
7.94921875000,13.468,2.587,
7.95312500000,13.365,2.514,
7.95703125000,13.271,2.448,
7.96093750000,13.186,2.388,
7.96484375000,13.109,2.333,
7.96875000000,13.004,2.287,
7.97265625000,12.680,2.268,
7.97656250000,12.386,2.250,
7.98046875000,12.119,2.234,
7.98437500000,11.878,2.219,
7.98828125000,11.659,2.206,
7.99218750000,11.460,2.194,
7.99609375000,11.280,2.183,
8.00000000000,11.117,2.173,
8.00390625000,10.970,2.164,
8.00781250000,10.836,2.156,
8.01171875000,10.714,2.149,
8.01562500000,10.604,2.142,
8.01953125000,10.520,2.110,
8.02343750000,10.470,2.040,
8.02734375000,10.424,1.976,
8.03125000000,10.383,1.918,
8.03515625000,10.345,1.866,
8.03906250000,10.311,1.819,
8.04296875000,10.280,1.776,
8.04687500000,10.252,1.737,
8.05078125000,10.227,1.701,
8.05468750000,10.204,1.669,
8.05859375000,10.183,1.640,
8.06250000000,10.164,1.614,
8.06640625000,10.147,1.590,
8.07031250000,10.429,5.067,
8.07421875000,10.854,10.217,
8.07812500000,11.239,14.885,
8.08203125000,11.588,19.116,
8.08593750000,11.905,22.951,
8.08984375000,12.192,26.427,
8.09375000000,12.452,29.578,
8.09765625000,12.687,32.434,
8.10156250000,12.901,35.022,
8.10546875000,13.095,37.369,
8.10937500000,13.270,39.496,
8.11328125000,13.429,41.424,
8.11718750000,13.574,43.171,
8.12109375000,13.641,43.085,
8.12500000000,13.693,42.780,
8.12890625000,13.740,42.503,
8.13281250000,13.783,42.253,
8.13671875000,13.822,42.025,
8.14062500000,13.857,41.820,
8.14453125000,13.889,41.633,
8.14843750000,13.918,41.464,
8.15234375000,13.944,41.310,
8.15625000000,13.967,41.171,
8.16015625000,13.989,41.045,
8.16406250000,14.008,40.931,
8.16796875000,13.988,40.513,
8.17187500000,13.714,38.033,
8.17578125000,13.465,35.785,
8.17968750000,13.240,33.748,
8.18359375000,13.036,31.902,
8.18750000000,12.851,30.228,
8.19140625000,12.683,28.711,
8.19531250000,12.531,27.336,
8.19921875000,12.393,26.089,
8.20312500000,12.268,24.959,
8.20703125000,12.155,23.935,
8.21093750000,12.053,23.007,
8.21484375000,11.960,22.166,
8.21875000000,12.005,21.104,
8.22265625000,12.253,19.669,
8.22656250000,12.478,18.367,
8.23046875000,12.681,17.188,
8.23437500000,12.866,16.118,
8.23828125000,13.033,15.149,
8.24218750000,13.184,14.271,
8.24609375000,13.322,13.474,
8.25000000000,13.446,12.753,
8.25390625000,13.559,12.099,
8.25781250000,13.662,11.506,
8.26171875000,13.754,10.968,
8.26562500000,13.838,10.481,
8.26953125000,14.427,9.938,
8.27343750000,15.254,9.389,
8.27734375000,16.003,8.891,
8.28125000000,16.681,8.439,
8.28515625000,17.297,8.030,
8.28906250000,17.855,7.659,
8.29296875000,18.360,7.323,
8.29687500000,18.819,7.018,
8.30078125000,19.234,6.742,
8.30468750000,19.610,6.492,
8.30859375000,19.952,6.265,
8.31250000000,20.261,6.059,
8.31640625000,20.542,5.873,
8.32031250000,20.436,5.611,
8.32421875000,20.292,5.361,
8.32812500000,20.162,5.135,
8.33203125000,20.043,4.930,
8.33593750000,19.936,4.744,
8.33984375000,19.838,4.575,
8.34375000000,19.750,4.422,
8.34765625000,19.670,4.284,
8.35156250000,19.598,4.158,
8.35546875000,19.532,4.044,
8.35937500000,19.473,3.941,
8.36328125000,19.419,3.848,
8.36718750000,19.369,3.769,
8.37109375000,19.316,3.742,
8.37500000000,19.268,3.717,
8.37890625000,19.225,3.695,
8.38281250000,19.185,3.674,
8.38671875000,19.150,3.656,
8.39062500000,19.117,3.639,
8.39453125000,19.088,3.624,
8.39843750000,19.062,3.610,
8.40234375000,19.038,3.598,
8.40625000000,19.016,3.587,
8.41015625000,18.996,3.576,
8.41406250000,18.978,3.567,
8.41796875000,18.780,4.046,
8.42187500000,18.311,5.253,
8.42578125000,17.887,6.346,
8.42968750000,17.502,7.338,
8.43359375000,17.153,8.237,
8.43750000000,16.836,9.051,
8.44140625000,16.550,9.790,
8.44531250000,16.290,10.459,
8.44921875000,16.054,11.066,
8.45312500000,15.841,11.615,
8.45703125000,15.647,12.114,
8.46093750000,15.472,12.566,
8.46484375000,15.313,12.975,
8.46875000000,15.197,13.399,
8.47265625000,15.108,13.813,
8.47656250000,15.028,14.189,
8.48046875000,14.955,14.529,
8.48437500000,14.889,14.838,
8.48828125000,14.829,15.118,
8.49218750000,14.775,15.371,
8.49609375000,14.726,15.601,
8.50000000000,14.681,15.809,
8.50390625000,14.641,15.998,
8.50781250000,14.604,16.169,
8.51171875000,14.571,16.324,
8.51562500000,14.541,16.465,
8.51953125000,14.473,15.623,
8.52343750000,14.407,14.727,
8.52734375000,14.347,13.916,
8.53125000000,14.292,13.180,
8.53515625000,14.243,12.513,
8.53906250000,14.198,11.909,
8.54296875000,14.158,11.361,
8.54687500000,14.121,10.864,
8.55078125000,14.087,10.414,
8.55468750000,14.057,10.006,
8.55859375000,14.030,9.636,
8.56250000000,14.005,9.301,
8.56640625000,13.951,8.958,
8.57031250000,13.690,8.381,
8.57421875000,13.454,7.858,
8.57812500000,13.240,7.385,
8.58203125000,13.046,6.955,
8.58593750000,12.870,6.566,
8.58984375000,12.711,6.213,
8.59375000000,12.567,5.894,
8.59765625000,12.436,5.604,
8.60156250000,12.317,5.341,
8.60546875000,12.210,5.103,
8.60937500000,12.112,4.887,
8.61328125000,12.024,4.692,
8.61718750000,11.695,4.784,
8.62109375000,11.002,5.296,
8.62500000000,10.374,5.760,
8.62890625000,9.805,6.181,
8.63281250000,9.289,6.563,
8.63671875000,8.822,6.908,
8.64062500000,8.398,7.222,
8.64453125000,8.014,7.506,
8.64843750000,7.666,7.763,
8.65234375000,7.350,7.997,
8.65625000000,7.064,8.208,
8.66015625000,6.805,8.400,
8.66406250000,6.570,8.574,
8.66796875000,6.378,8.864,
8.67187500000,6.217,9.204,
8.67578125000,6.072,9.511,
8.67968750000,5.939,9.790,
8.68359375000,5.820,10.043,
8.68750000000,5.711,10.272,
8.69140625000,5.613,10.480,
8.69531250000,5.523,10.668,
8.69921875000,5.443,10.839,
8.70312500000,5.369,10.993,
8.70703125000,5.303,11.134,
8.71093750000,5.243,11.261,
8.71484375000,5.188,11.376,
8.71875000000,6.086,11.479,
8.72265625000,7.030,11.571,
8.72656250000,7.885,11.656,
8.73046875000,8.660,11.732,
8.73437500000,9.362,11.801,
8.73828125000,9.999,11.864,
8.74218750000,10.576,11.921,
8.74609375000,11.099,11.972,
8.75000000000,11.573,12.019,
8.75390625000,12.003,12.061,
8.75781250000,12.393,12.100,
8.76171875000,12.746,12.134,
8.76562500000,12.998,12.136,
8.76953125000,12.775,11.940,
8.77343750000,12.572,11.762,
8.77734375000,12.388,11.601,
8.78125000000,12.222,11.455,
8.78515625000,12.071,11.322,
8.78906250000,11.934,11.202,
8.79296875000,11.810,11.094,
8.79687500000,11.698,10.995,
8.80078125000,11.596,10.905,
8.80468750000,11.503,10.824,
8.80859375000,11.420,10.751,
8.81250000000,11.344,10.684,
8.81640625000,10.970,10.617,
8.82031250000,10.148,10.544,
8.82421875000,9.403,10.479,
8.82812500000,8.728,10.419,
8.83203125000,8.116,10.365,
8.83593750000,7.561,10.316,
8.83984375000,7.058,10.272,
8.84375000000,6.602,10.231,
8.84765625000,6.189,10.195,
8.85156250000,5.814,10.162,
8.85546875000,5.475,10.132,
8.85937500000,5.167,10.105,
8.86328125000,4.888,10.080,
8.86718750000,4.811,9.933,
8.87109375000,4.842,9.728,
8.87500000000,4.870,9.543,
8.87890625000,4.896,9.375,
8.88281250000,4.919,9.223,
8.88671875000,4.939,9.084,
8.89062500000,4.958,8.959,
8.89453125000,4.975,8.846,
8.89843750000,4.991,8.743,
8.90234375000,5.005,8.650,
8.90625000000,5.018,8.565,
8.91015625000,5.029,8.489,
8.91406250000,5.040,8.419,
8.91796875000,4.948,8.288,
8.92187500000,4.851,8.160,
8.92578125000,4.762,8.044,
8.92968750000,4.683,7.938,
8.93359375000,4.610,7.843,
8.93750000000,4.545,7.756,
8.94140625000,4.485,7.678,
8.94531250000,4.431,7.607,
8.94921875000,4.382,7.542,
8.95312500000,4.338,7.484,
8.95703125000,4.298,7.431,
8.96093750000,4.261,7.383,
8.96484375000,4.253,7.326,
8.96875000000,4.413,7.183,
8.97265625000,4.558,7.054,
8.97656250000,4.689,6.937,
8.98046875000,4.808,6.831,
8.98437500000,4.916,6.735,
8.98828125000,5.014,6.647,
8.99218750000,5.102,6.568,
8.99609375000,5.182,6.497,
9.00000000000,5.255,6.432,
9.00390625000,5.321,6.373,
9.00781250000,5.381,6.320,
9.01171875000,5.435,6.271,
9.01562500000,5.545,6.394,
9.01953125000,5.742,6.768,
9.02343750000,5.920,7.108,
9.02734375000,6.082,7.415,
9.03125000000,6.229,7.694,
9.03515625000,6.361,7.947,
9.03906250000,6.482,8.176,
9.04296875000,6.591,8.384,
9.04687500000,6.690,8.572,
9.05078125000,6.780,8.743,
9.05468750000,6.861,8.897,
9.05859375000,6.935,9.037,
9.06250000000,7.001,9.165,
9.06640625000,7.780,8.942,
9.07031250000,8.895,8.548,
9.07421875000,9.906,8.191,
9.07812500000,10.823,7.868,
9.08203125000,11.654,7.574,
9.08593750000,12.407,7.308,
9.08984375000,13.089,7.067,
9.09375000000,13.708,6.849,
9.09765625000,14.269,6.651,
9.10156250000,14.777,6.471,
9.10546875000,15.238,6.308,
9.10937500000,15.655,6.161,
9.11328125000,16.034,6.027,
9.11718750000,15.431,6.493,
9.12109375000,14.755,6.994,
9.12500000000,14.143,7.449,
9.12890625000,13.589,7.861,
9.13281250000,13.086,8.235,
9.13671875000,12.630,8.573,
9.14062500000,12.217,8.880,
9.14453125000,11.842,9.158,
9.14843750000,11.503,9.410,
9.15234375000,11.195,9.639,
9.15625000000,10.916,9.846,
9.16015625000,10.664,10.034,
9.16406250000,10.366,10.205,
9.16796875000,9.637,10.369,
9.17187500000,8.977,10.518,
9.17578125000,8.379,10.652,
9.17968750000,7.836,10.774,
9.18359375000,7.344,10.885,
9.18750000000,6.899,10.985,
9.19140625000,6.495,11.076,
9.19531250000,6.129,11.159,
9.19921875000,5.797,11.233,
9.20312500000,5.496,11.301,
9.20703125000,5.223,11.362,
9.21093750000,4.976,11.418,
9.21484375000,4.759,11.828,
9.21875000000,4.573,12.771,
9.22265625000,4.404,13.625,
9.22656250000,4.252,14.400,
9.23046875000,4.113,15.102,
9.23437500000,3.988,15.738,
9.23828125000,3.874,16.315,
9.24218750000,3.771,16.837,
9.24609375000,3.677,17.311,
9.25000000000,3.593,17.741,
9.25390625000,3.516,18.130,
9.25781250000,3.446,18.483,
9.26171875000,3.383,18.803,
9.26562500000,3.330,18.427,
9.26953125000,3.285,17.705,
9.27343750000,3.243,17.051,
9.27734375000,3.206,16.458,
9.28125000000,3.172,15.920,
9.28515625000,3.141,15.433,
9.28906250000,3.113,14.992,
9.29296875000,3.088,14.591,
9.29687500000,3.065,14.229,
9.30078125000,3.044,13.900,
9.30468750000,3.025,13.602,
9.30859375000,3.008,13.332,
9.31250000000,2.992,13.087,
9.31640625000,2.899,13.797,
9.32031250000,2.803,14.568,
9.32421875000,2.716,15.267,
9.32812500000,2.637,15.900,
9.33203125000,2.566,16.474,
9.33593750000,2.501,16.995,
9.33984375000,2.442,17.466,
9.34375000000,2.389,17.894,
9.34765625000,2.341,18.281,
9.35156250000,2.297,18.633,
9.35546875000,2.258,18.951,
9.35937500000,2.222,19.240,
9.36328125000,2.210,19.408,
9.36718750000,2.340,18.936,
9.37109375000,2.457,18.508,
9.37500000000,2.563,18.120,
9.37890625000,2.659,17.769,
9.38281250000,2.746,17.450,
9.38671875000,2.825,17.162,
9.39062500000,2.896,16.900,
9.39453125000,2.961,16.663,
9.39843750000,3.020,16.448,
9.40234375000,3.073,16.253,
9.40625000000,3.122,16.076,
9.41015625000,3.166,15.916,
9.41406250000,3.147,15.782,
9.41796875000,3.037,15.677,
9.42187500000,2.938,15.582,
9.42578125000,2.848,15.495,
9.42968750000,2.766,15.417,
9.43359375000,2.692,15.346,
9.43750000000,2.625,15.282,
9.44140625000,2.564,15.224,
9.44531250000,2.509,15.171,
9.44921875000,2.459,15.123,
9.45312500000,2.414,15.080,
9.45703125000,2.373,15.040,
9.46093750000,2.336,15.005,
9.46484375000,2.330,14.629,
9.46875000000,2.340,14.091,
9.47265625000,2.349,13.603,
9.47656250000,2.357,13.162,
9.48046875000,2.365,12.761,
9.48437500000,2.372,12.398,
9.48828125000,2.378,12.069,
9.49218750000,2.384,11.771,
9.49609375000,2.389,11.501,
9.50000000000,2.394,11.256,
9.50390625000,2.398,11.034,
9.50781250000,2.402,10.833,
9.51171875000,2.405,10.650,
9.51562500000,2.379,10.344,
9.51953125000,2.351,10.046,
9.52343750000,2.325,9.777,
9.52734375000,2.302,9.533,
9.53125000000,2.282,9.311,
9.53515625000,2.263,9.111,
9.53906250000,2.246,8.929,
9.54296875000,2.230,8.764,
9.54687500000,2.216,8.615,
9.55078125000,2.203,8.479,
9.55468750000,2.192,8.356,
9.55859375000,2.181,8.245,
9.56250000000,2.169,8.160,
9.56640625000,2.139,8.185,
9.57031250000,2.111,8.208,
9.57421875000,2.086,8.230,
9.57812500000,2.063,8.249,
9.58203125000,2.043,8.266,
9.58593750000,2.024,8.282,
9.58984375000,2.007,8.296,
9.59375000000,1.992,8.309,
9.59765625000,1.978,8.320,
9.60156250000,1.966,8.331,
9.60546875000,1.954,8.341,
9.60937500000,1.944,8.349,
9.61328125000,1.981,8.502,
9.61718750000,2.088,8.871,
9.62109375000,2.185,9.205,
9.62500000000,2.272,9.508,
9.62890625000,2.352,9.783,
9.63281250000,2.424,10.032,
9.63671875000,2.490,10.258,
9.64062500000,2.549,10.462,
9.64453125000,2.603,10.648,
9.64843750000,2.651,10.816,
9.65234375000,2.695,10.968,
9.65625000000,2.735,11.106,
9.66015625000,2.772,11.231,
9.66406250000,2.755,11.645,
9.66796875000,2.711,12.192,
9.67187500000,2.671,12.688,
9.67578125000,2.635,13.137,
9.67968750000,2.602,13.544,
9.68359375000,2.572,13.913,
9.68750000000,2.545,14.248,
9.69140625000,2.521,14.551,
9.69531250000,2.499,14.826,
9.69921875000,2.479,15.075,
9.70312500000,2.461,15.301,
9.70703125000,2.444,15.505,
9.71093750000,2.429,15.691,
9.71484375000,2.441,15.305,
9.71875000000,2.455,14.880,
9.72265625000,2.467,14.494,
9.72656250000,2.479,14.145,
9.73046875000,2.489,13.828,
9.73437500000,2.498,13.541,
9.73828125000,2.507,13.281,
9.74218750000,2.514,13.046,
9.74609375000,2.521,12.832,
9.75000000000,2.528,12.638,
9.75390625000,2.533,12.462,
9.75781250000,2.539,12.303,
9.76171875000,2.533,12.174,
9.76562500000,2.460,12.153,
9.76953125000,2.394,12.135,
9.77343750000,2.334,12.118,
9.77734375000,2.280,12.103,
9.78125000000,2.231,12.090,
9.78515625000,2.186,12.077,
9.78906250000,2.145,12.066,
9.79296875000,2.109,12.056,
9.79687500000,2.076,12.047,
9.80078125000,2.045,12.038,
9.80468750000,2.018,12.031,
9.80859375000,1.993,12.024,
9.81250000000,1.984,11.955,
9.81640625000,1.998,11.793,
9.82031250000,2.009,11.647,
9.82421875000,2.020,11.514,
9.82812500000,2.030,11.393,
9.83203125000,2.039,11.284,
9.83593750000,2.047,11.185,
9.83984375000,2.054,11.095,
9.84375000000,2.061,11.014,
9.84765625000,2.067,10.940,
9.85156250000,2.073,10.873,
9.85546875000,2.077,10.812,
9.85937500000,2.082,10.757,
9.86328125000,2.127,10.670,
9.86718750000,2.192,10.569,
9.87109375000,2.251,10.477,
9.87500000000,2.304,10.394,
9.87890625000,2.353,10.318,
9.88281250000,2.396,10.250,
9.88671875000,2.436,10.188,
9.89062500000,2.472,10.132,
9.89453125000,2.505,10.081,
9.89843750000,2.534,10.035,
9.90234375000,2.561,9.993,
9.90625000000,2.585,9.955,
9.91015625000,2.607,9.921,
9.91406250000,2.513,9.738,
9.91796875000,2.412,9.551,
9.92187500000,2.320,9.381,
9.92578125000,2.237,9.228,
9.92968750000,2.162,9.089,
9.93359375000,2.094,8.963,
9.93750000000,2.032,8.848,
9.94140625000,1.976,8.745,
9.94531250000,1.925,8.651,
9.94921875000,1.879,8.565,
9.95312500000,1.837,8.488,
9.95703125000,1.799,8.418,
9.96093750000,1.773,8.529,
9.96484375000,1.805,9.794,
9.96875000000,1.834,10.940,
9.97265625000,1.861,11.979,
9.97656250000,1.885,12.920,
9.98046875000,1.906,13.774,
9.98437500000,1.926,14.547,
9.98828125000,1.944,15.248,
9.99218750000,1.960,15.884,
9.99609375000,1.974,16.460,
10.00000000000,1.988,16.982,
10.00390625000,2.000,17.456,
10.00781250000,2.010,17.885,
10.01171875000,2.031,18.177,
10.01562500000,2.067,18.290,
10.01953125000,2.100,18.393,
10.02343750000,2.129,18.485,
10.02734375000,2.156,18.570,
10.03125000000,2.180,18.646,
10.03515625000,2.202,18.715,
10.03906250000,2.222,18.777,
10.04296875000,2.240,18.834,
10.04687500000,2.256,18.886,
10.05078125000,2.271,18.932,
10.05468750000,2.285,18.974,
10.05859375000,2.297,19.013,
10.06250000000,2.304,18.614,
10.06640625000,2.308,18.005,
10.07031250000,2.312,17.453,
10.07421875000,2.315,16.953,
10.07812500000,2.318,16.499,
10.08203125000,2.321,16.088,
10.08593750000,2.323,15.716,
10.08984375000,2.326,15.378,
10.09375000000,2.328,15.072,
10.09765625000,2.329,14.794,
10.10156250000,2.331,14.543,
10.10546875000,2.333,14.315,
10.10937500000,2.334,14.108,
10.11328125000,2.351,13.316,
10.11718750000,2.369,12.516,
10.12109375000,2.385,11.791,
10.12500000000,2.399,11.133,
10.12890625000,2.412,10.537,
10.13281250000,2.424,9.997,
10.13671875000,2.435,9.508,
10.14062500000,2.445,9.064,
10.14453125000,2.454,8.662,
10.14843750000,2.462,8.297,
10.15234375000,2.469,7.967,
10.15625000000,2.476,7.667,
10.16015625000,2.497,7.419,
10.16406250000,2.620,7.350,
10.16796875000,2.730,7.288,
10.17187500000,2.831,7.232,
10.17578125000,2.922,7.181,
10.17968750000,3.005,7.135,
10.18359375000,3.079,7.093,
10.18750000000,3.147,7.055,
10.19140625000,3.209,7.020,
10.19531250000,3.264,6.989,
10.19921875000,3.315,6.961,
10.20312500000,3.361,6.935,
10.20703125000,3.402,6.912,
10.21093750000,3.400,6.925,
10.21484375000,3.333,6.991,
10.21875000000,3.273,7.051,
10.22265625000,3.218,7.106,
10.22656250000,3.169,7.155,
10.23046875000,3.124,7.200,
10.23437500000,3.084,7.241,
10.23828125000,3.047,7.278,
10.24218750000,3.013,7.311,
10.24609375000,2.983,7.341,
10.25000000000,2.956,7.369,
10.25390625000,2.931,7.393,
10.25781250000,2.908,7.416,
10.26171875000,2.871,7.325,
10.26562500000,2.827,7.178,
10.26953125000,2.787,7.046,
10.27343750000,2.751,6.926,
10.27734375000,2.719,6.817,
10.28125000000,2.689,6.718,
10.28515625000,2.663,6.628,
10.28906250000,2.638,6.547,
10.29296875000,2.616,6.473,
10.29687500000,2.596,6.407,
10.30078125000,2.578,6.346,
10.30468750000,2.562,6.291,
10.30859375000,2.547,6.242,
10.31250000000,2.497,6.461,
10.31640625000,2.448,6.696,
10.32031250000,2.402,6.908,
10.32421875000,2.361,7.101,
10.32812500000,2.324,7.276,
10.33203125000,2.291,7.434,
10.33593750000,2.260,7.578,
10.33984375000,2.232,7.708,
10.34375000000,2.207,7.826,
10.34765625000,2.185,7.933,
10.35156250000,2.164,8.030,
10.35546875000,2.145,8.118,
10.35937500000,2.127,8.180,
10.36328125000,2.096,8.124,
10.36718750000,2.068,8.072,
10.37109375000,2.043,8.026,
10.37500000000,2.020,7.984,
10.37890625000,1.999,7.946,
10.38281250000,1.980,7.911,
10.38671875000,1.963,7.880,
10.39062500000,1.948,7.851,
10.39453125000,1.934,7.825,
10.39843750000,1.921,7.802,
10.40234375000,1.909,7.781,
10.40625000000,1.899,7.762,
10.41015625000,1.923,7.777,
10.41406250000,1.997,7.843,
10.41796875000,2.065,7.902,
10.42187500000,2.126,7.956,
10.42578125000,2.182,8.005,
10.42968750000,2.232,8.050,
10.43359375000,2.278,8.090,
10.43750000000,2.319,8.126,
10.44140625000,2.356,8.159,
10.44531250000,2.390,8.189,
10.44921875000,2.421,8.216,
10.45312500000,2.449,8.241,
10.45703125000,2.474,8.263,
10.46093750000,2.442,8.004,
10.46484375000,2.382,7.608,
10.46875000000,2.327,7.250,
10.47265625000,2.278,6.925,
10.47656250000,2.233,6.631,
10.48046875000,2.192,6.364,
10.48437500000,2.155,6.122,
10.48828125000,2.122,5.903,
10.49218750000,2.092,5.705,
10.49609375000,2.064,5.524,
10.50000000000,2.039,5.361,
10.50390625000,2.017,5.213,
10.50781250000,1.996,5.079,
10.51171875000,2.020,5.006,
10.51562500000,2.046,4.946,
10.51953125000,2.071,4.892,
10.52343750000,2.093,4.843,
10.52734375000,2.113,4.798,
10.53125000000,2.131,4.758,
10.53515625000,2.147,4.721,
10.53906250000,2.162,4.688,
10.54296875000,2.175,4.658,
10.54687500000,2.188,4.630,
10.55078125000,2.199,4.606,
10.55468750000,2.209,4.583,
10.55859375000,2.209,4.638,
10.56250000000,2.151,5.191,
10.56640625000,2.099,5.692,
10.57031250000,2.051,6.146,
10.57421875000,2.008,6.557,
10.57812500000,1.969,6.930,
10.58203125000,1.934,7.268,
10.58593750000,1.902,7.575,
10.58984375000,1.872,7.853,
10.59375000000,1.846,8.104,
10.59765625000,1.822,8.333,
10.60156250000,1.801,8.540,
10.60546875000,1.781,8.727,
10.60937500000,1.787,8.784,
10.61328125000,1.832,8.657,
10.61718750000,1.873,8.541,
10.62109375000,1.909,8.437,
10.62500000000,1.943,8.342,
10.62890625000,1.973,8.256,
10.63281250000,2.000,8.178,
10.63671875000,2.025,8.107,
10.64062500000,2.047,8.043,
10.64453125000,2.068,7.985,
10.64843750000,2.086,7.932,
10.65234375000,2.103,7.885,
10.65625000000,2.118,7.842,
10.66015625000,2.125,7.823,
10.66406250000,2.128,7.819,
10.66796875000,2.130,7.815,
10.67187500000,2.132,7.811,
10.67578125000,2.134,7.807,
10.67968750000,2.136,7.804,
10.68359375000,2.138,7.802,
10.68750000000,2.139,7.799,
10.69140625000,2.141,7.797,
10.69531250000,2.142,7.795,
10.69921875000,2.143,7.793,
10.70312500000,2.144,7.791,
10.70703125000,2.145,7.790,
10.71093750000,2.139,8.736,
10.71484375000,2.134,9.722,
10.71875000000,2.128,10.616,
10.72265625000,2.124,11.427,
10.72656250000,2.119,12.161,
10.73046875000,2.115,12.827,
10.73437500000,2.112,13.431,
10.73828125000,2.109,13.978,
10.74218750000,2.106,14.474,
10.74609375000,2.103,14.923,
10.75000000000,2.101,15.331,
10.75390625000,2.099,15.700,
10.75781250000,2.101,15.945,
10.76171875000,2.128,15.570,
10.76562500000,2.152,15.230,
10.76953125000,2.174,14.921,
10.77343750000,2.194,14.642,
10.77734375000,2.212,14.389,
10.78125000000,2.229,14.159,
10.78515625000,2.244,13.951,
10.78906250000,2.257,13.762,
10.79296875000,2.270,13.591,
10.79687500000,2.281,13.436,
10.80078125000,2.291,13.296,
10.80468750000,2.300,13.169,
10.80859375000,2.299,12.911,
10.81250000000,2.285,12.452,
10.81640625000,2.271,12.036,
10.82031250000,2.259,11.658,
10.82421875000,2.248,11.317,
10.82812500000,2.239,11.007,
10.83203125000,2.230,10.726,
10.83593750000,2.221,10.471,
10.83984375000,2.214,10.240,
10.84375000000,2.207,10.031,
10.84765625000,2.201,9.841,
10.85156250000,2.196,9.670,
10.85546875000,2.191,9.514,
10.85937500000,2.210,9.507,
10.86328125000,2.241,9.576,
10.86718750000,2.269,9.640,
10.87109375000,2.295,9.697,
10.87500000000,2.318,9.749,
10.87890625000,2.339,9.796,
10.88281250000,2.358,9.839,
10.88671875000,2.375,9.878,
10.89062500000,2.390,9.913,
10.89453125000,2.405,9.945,
10.89843750000,2.417,9.974,
10.90234375000,2.429,10.000,
10.90625000000,2.440,10.023,
10.91015625000,2.397,10.053,
10.91406250000,2.352,10.081,
10.91796875000,2.310,10.106,
10.92187500000,2.273,10.129,
10.92578125000,2.239,10.149,
10.92968750000,2.208,10.168,
10.93359375000,2.180,10.185,
10.93750000000,2.155,10.200,
10.94140625000,2.132,10.214,
10.94531250000,2.111,10.227,
10.94921875000,2.093,10.238,
10.95312500000,2.075,10.249,
10.95703125000,2.080,10.233,
10.96093750000,2.216,10.052,
10.96484375000,2.340,9.888,
10.96875000000,2.452,9.740,
10.97265625000,2.554,9.605,
10.97656250000,2.646,9.483,
10.98046875000,2.729,9.372,
10.98437500000,2.805,9.272,
10.98828125000,2.873,9.181,
10.99218750000,2.935,9.099,
10.99609375000,2.992,9.024,
11.00000000000,3.043,8.956,
11.00390625000,3.089,8.895,
11.00781250000,3.079,8.802,
11.01171875000,2.987,8.660,
11.01562500000,2.903,8.531,
11.01953125000,2.827,8.415,
11.02343750000,2.759,8.309,
11.02734375000,2.697,8.213,
11.03125000000,2.640,8.126,
11.03515625000,2.589,8.047,
11.03906250000,2.543,7.976,
11.04296875000,2.501,7.911,
11.04687500000,2.463,7.852,
11.05078125000,2.428,7.799,
11.05468750000,2.397,7.751,
11.05859375000,2.380,7.766,
11.06250000000,2.372,7.813,
11.06640625000,2.364,7.856,
11.07031250000,2.357,7.895,
11.07421875000,2.351,7.930,
11.07812500000,2.345,7.962,
11.08203125000,2.340,7.991,
11.08593750000,2.335,8.017,
11.08984375000,2.331,8.041,
11.09375000000,2.327,8.062,
11.09765625000,2.324,8.082,
11.10156250000,2.321,8.100,
11.10546875000,2.318,8.116,
11.10937500000,2.313,8.390,
11.11328125000,2.308,8.674,
11.11718750000,2.304,8.931,
11.12109375000,2.301,9.164,
11.12500000000,2.297,9.376,
11.12890625000,2.294,9.567,
11.13281250000,2.291,9.741,
11.13671875000,2.289,9.898,
11.14062500000,2.286,10.041,
11.14453125000,2.284,10.170,
11.14843750000,2.282,10.288,
11.15234375000,2.281,10.394,
11.15625000000,2.284,10.444,
11.16015625000,2.323,10.183,
11.16406250000,2.358,9.947,
11.16796875000,2.390,9.733,
11.17187500000,2.419,9.538,
11.17578125000,2.445,9.362,
11.17968750000,2.469,9.203,
11.18359375000,2.490,9.058,
11.18750000000,2.510,8.927,
11.19140625000,2.527,8.808,
11.19531250000,2.543,8.700,
11.19921875000,2.558,8.603,
11.20312500000,2.571,8.514,
11.20703125000,2.550,8.386,
11.21093750000,2.480,8.194,
11.21484375000,2.416,8.019,
11.21875000000,2.357,7.861,
11.22265625000,2.305,7.718,
11.22656250000,2.257,7.588,
11.23046875000,2.214,7.471,
11.23437500000,2.175,7.364,
11.23828125000,2.139,7.267,
11.24218750000,2.107,7.180,
11.24609375000,2.078,7.100,
11.25000000000,2.051,7.028,
11.25390625000,2.027,6.963,
11.25781250000,2.075,7.034,
11.26171875000,2.158,7.173,
11.26562500000,2.233,7.299,
11.26953125000,2.301,7.413,
11.27343750000,2.363,7.517,
11.27734375000,2.419,7.611,
11.28125000000,2.469,7.696,
11.28515625000,2.515,7.773,
11.28906250000,2.557,7.843,
11.29296875000,2.595,7.906,
11.29687500000,2.629,7.963,
11.30078125000,2.660,8.015,
11.30468750000,2.688,8.062,
11.30859375000,2.676,7.942,
11.31250000000,2.660,7.811,M1
11.31640625000,2.645,7.692,
11.32031250000,2.632,7.584,
11.32421875000,2.620,7.486,
11.32812500000,2.609,7.397,
11.33203125000,2.600,7.317,
11.33593750000,2.591,7.244,
11.33984375000,2.583,7.178,
11.34375000000,2.575,7.118,
11.34765625000,2.569,7.064,
11.35156250000,2.563,7.015,
11.35546875000,2.564,7.000,
11.35937500000,2.610,7.183,
11.36328125000,2.652,7.349,
11.36718750000,2.690,7.500,
11.37109375000,2.724,7.636,
11.37500000000,2.755,7.760,
11.37890625000,2.783,7.872,
11.38281250000,2.809,7.974,
11.38671875000,2.832,8.066,
11.39062500000,2.853,8.149,
11.39453125000,2.872,8.225,
11.39843750000,2.889,8.293,
11.40234375000,2.905,8.356,
11.40625000000,2.915,8.472,
11.41015625000,2.917,8.674,
11.41406250000,2.919,8.857,
11.41796875000,2.920,9.023,
11.42187500000,2.922,9.173,
11.42578125000,2.923,9.309,
11.42968750000,2.925,9.433,
11.43359375000,2.926,9.544,
11.43750000000,2.927,9.646,
11.44140625000,2.928,9.738,
11.44531250000,2.929,9.821,
11.44921875000,2.929,9.897,
11.45312500000,2.930,9.965,
11.45703125000,2.881,10.909,
11.46093750000,2.809,12.268,
11.46484375000,2.744,13.499,
11.46875000000,2.684,14.616,
11.47265625000,2.630,15.628,
11.47656250000,2.582,16.545,
11.48046875000,2.537,17.376,
11.48437500000,2.497,18.130,
11.48828125000,2.461,18.813,
11.49218750000,2.428,19.432,
11.49609375000,2.398,19.993,
11.50000000000,2.371,20.502,
11.50390625000,2.347,20.963,
11.50781250000,2.325,20.188,
11.51171875000,2.305,19.323,
11.51562500000,2.287,18.539,
11.51953125000,2.271,17.829,
11.52343750000,2.256,17.185,
11.52734375000,2.243,16.601,
11.53125000000,2.230,16.072,
11.53515625000,2.219,15.592,
11.53906250000,2.209,15.158,
11.54296875000,2.200,14.764,
11.54687500000,2.192,14.406,
11.55078125000,2.185,14.083,
11.55468750000,2.175,13.759,
11.55859375000,2.142,13.268,
11.56250000000,2.112,12.822,
11.56640625000,2.086,12.418,
11.57031250000,2.061,12.051,
11.57421875000,2.039,11.719,
11.57812500000,2.019,11.418,
11.58203125000,2.001,11.146,
11.58593750000,1.985,10.898,
11.58984375000,1.970,10.674,
11.59375000000,1.957,10.471,
11.59765625000,1.944,10.287,
11.60156250000,1.933,10.120,
11.60546875000,1.915,9.957,
11.60937500000,1.886,9.790,
11.61328125000,1.859,9.639,
11.61718750000,1.835,9.502,
11.62109375000,1.813,9.377,
11.62500000000,1.793,9.265,
11.62890625000,1.775,9.163,
11.63281250000,1.759,9.070,
11.63671875000,1.744,8.986,
11.64062500000,1.731,8.910,
11.64453125000,1.719,8.841,
11.64843750000,1.708,8.779,
11.65234375000,1.698,8.722,
11.65625000000,1.699,8.718,
11.66015625000,1.705,8.742,
11.66406250000,1.711,8.764,
11.66796875000,1.716,8.784,
11.67187500000,1.720,8.801,
11.67578125000,1.725,8.817,
11.67968750000,1.728,8.832,
11.68359375000,1.732,8.845,
11.68750000000,1.735,8.857,
11.69140625000,1.738,8.868,
11.69531250000,1.741,8.878,
11.69921875000,1.743,8.887,
11.70312500000,1.745,8.895,
11.70703125000,1.804,8.838,
11.71093750000,1.866,8.777,
11.71484375000,1.922,8.722,
11.71875000000,1.972,8.672,
11.72265625000,2.018,8.627,
11.72656250000,2.060,8.586,
11.73046875000,2.097,8.549,
11.73437500000,2.131,8.515,
11.73828125000,2.162,8.485,
11.74218750000,2.190,8.457,
11.74609375000,2.216,8.432,
11.75000000000,2.239,8.410,
11.75390625000,2.251,8.341,
11.75781250000,2.204,7.961,
11.76171875000,2.161,7.617,
11.76562500000,2.123,7.305,
11.76953125000,2.088,7.022,
11.77343750000,2.056,6.765,
11.77734375000,2.027,6.533,
11.78125000000,2.001,6.322,
11.78515625000,1.977,6.131,
11.78906250000,1.956,5.958,
11.79296875000,1.936,5.801,
11.79687500000,1.919,5.659,
11.80078125000,1.903,5.530,
11.80468750000,1.925,5.484,
11.80859375000,2.003,5.556,
11.81250000000,2.074,5.621,
11.81640625000,2.139,5.680,
11.82031250000,2.197,5.733,
11.82421875000,2.250,5.782,
11.82812500000,2.298,5.826,
11.83203125000,2.341,5.866,
11.83593750000,2.381,5.902,
11.83984375000,2.417,5.934,
11.84375000000,2.449,5.964,
11.84765625000,2.478,5.991,
11.85156250000,2.505,6.015,
11.85546875000,2.468,5.855,
11.85937500000,2.399,5.607,
11.86328125000,2.337,5.381,
11.86718750000,2.280,5.177,
11.87109375000,2.229,4.991,
11.87500000000,2.183,4.824,
11.87890625000,2.141,4.671,
11.88281250000,2.103,4.533,
11.88671875000,2.068,4.408,
11.89062500000,2.037,4.295,
11.89453125000,2.008,4.192,
11.89843750000,1.983,4.099,
11.90234375000,1.959,4.015,
11.90625000000,2.007,3.990,
11.91015625000,2.060,3.974,
11.91406250000,2.108,3.961,
11.91796875000,2.151,3.948,
11.92187500000,2.191,3.936,
11.92578125000,2.226,3.926,
11.92968750000,2.258,3.917,
11.93359375000,2.288,3.908,
11.93750000000,2.314,3.900,
11.94140625000,2.338,3.893,
11.94531250000,2.360,3.887,
11.94921875000,2.380,3.881,
11.95312500000,2.409,3.916,
11.95703125000,2.513,4.214,
11.96093750000,2.607,4.484,
11.96484375000,2.692,4.728,
11.96875000000,2.770,4.950,
11.97265625000,2.840,5.151,
11.97656250000,2.903,5.333,
11.98046875000,2.961,5.498,
11.98437500000,3.013,5.648,
11.98828125000,3.060,5.784,
11.99218750000,3.103,5.907,
11.99609375000,3.142,6.018,
12.00000000000,3.177,6.119,
12.00390625000,3.249,6.248,
12.00781250000,3.377,6.424,
12.01171875000,3.494,6.584,
12.01562500000,3.600,6.729,
12.01953125000,3.695,6.860,
12.02343750000,3.782,6.979,
12.02734375000,3.861,7.087,
12.03125000000,3.932,7.185,
12.03515625000,3.997,7.274,
12.03906250000,4.055,7.354,
12.04296875000,4.108,7.427,
12.04687500000,4.156,7.493,
12.05078125000,4.200,7.552,
12.05468750000,4.138,7.563,
12.05859375000,4.022,7.549,
12.06250000000,3.918,7.535,
12.06640625000,3.824,7.523,
12.07031250000,3.738,7.512,
12.07421875000,3.660,7.502,
12.07812500000,3.590,7.493,
12.08203125000,3.526,7.485,
12.08593750000,3.468,7.478,
12.08984375000,3.416,7.471,
12.09375000000,3.368,7.465,
12.09765625000,3.325,7.459,
12.10156250000,3.286,7.454,
12.10546875000,3.222,7.859,
12.10937500000,3.160,8.282,
12.11328125000,3.104,8.666,
12.11718750000,3.052,9.013,
12.12109375000,3.006,9.328,
12.12500000000,2.964,9.613,
12.12890625000,2.926,9.872,
12.13281250000,2.892,10.107,
12.13671875000,2.861,10.319,
12.14062500000,2.832,10.512,
12.14453125000,2.807,10.687,
12.14843750000,2.783,10.845,
12.15234375000,2.772,11.016,
12.15625000000,2.829,11.356,
12.16015625000,2.881,11.664,
12.16406250000,2.927,11.943,
12.16796875000,2.970,12.196,
12.17187500000,3.008,12.425,
12.17578125000,3.043,12.633,
12.17968750000,3.074,12.821,
12.18359375000,3.103,12.992,
12.18750000000,3.129,13.147,
12.19140625000,3.152,13.287,
12.19531250000,3.174,13.414,
12.19921875000,3.193,13.530,
12.20312500000,3.205,14.175,
12.20703125000,3.208,15.620,
12.21093750000,3.210,16.929,
12.21484375000,3.212,18.115,
12.21875000000,3.214,19.191,
12.22265625000,3.216,20.166,
12.22656250000,3.217,21.049,
12.23046875000,3.219,21.850,
12.23437500000,3.220,22.576,
12.23828125000,3.221,23.234,
12.24218750000,3.222,23.831,
12.24609375000,3.223,24.372,
12.25000000000,3.224,24.862,
12.25390625000,3.185,24.846,
12.25781250000,3.126,24.568,
12.26171875000,3.073,24.316,
12.26562500000,3.024,24.088,
12.26953125000,2.981,23.882,
12.27343750000,2.941,23.694,
12.27734375000,2.905,23.525,
12.28125000000,2.872,23.371,
12.28515625000,2.843,23.231,
12.28906250000,2.816,23.105,
12.29296875000,2.792,22.990,
12.29687500000,2.770,22.886,
12.30078125000,2.750,22.792,
12.30468750000,2.816,22.484,
12.30859375000,2.887,22.175,
12.31250000000,2.952,21.895,
12.31640625000,3.011,21.641,
12.32031250000,3.064,21.411,
12.32421875000,3.112,21.202,
12.32812500000,3.156,21.013,
12.33203125000,3.195,20.842,
12.33593750000,3.231,20.686,
12.33984375000,3.264,20.545,
12.34375000000,3.293,20.418,
12.34765625000,3.320,20.302,
12.35156250000,3.358,20.238,
12.35546875000,3.488,20.451,
12.35937500000,3.606,20.644,
12.36328125000,3.713,20.818,
12.36718750000,3.810,20.977,
12.37109375000,3.898,21.121,
12.37500000000,3.978,21.251,
12.37890625000,4.050,21.369,
12.38281250000,4.115,21.476,
12.38671875000,4.175,21.573,
12.39062500000,4.228,21.661,
12.39453125000,4.277,21.741,
12.39843750000,4.321,21.813,
12.40234375000,4.370,21.734,
12.40625000000,4.427,21.435,
12.41015625000,4.479,21.163,
12.41406250000,4.526,20.917,
12.41796875000,4.568,20.694,
12.42187500000,4.607,20.491,
12.42578125000,4.642,20.308,
12.42968750000,4.673,20.142,
12.43359375000,4.702,19.991,
12.43750000000,4.728,19.855,
12.44140625000,4.752,19.731,
12.44531250000,4.773,19.619,
12.44921875000,4.792,19.517,
12.45312500000,5.123,19.226,
12.45703125000,5.603,18.849,
12.46093750000,6.037,18.508,
12.46484375000,6.430,18.198,
12.46875000000,6.787,17.917,
12.47265625000,7.111,17.663,
12.47656250000,7.404,17.432,
12.48046875000,7.670,17.223,
12.48437500000,7.910,17.034,
12.48828125000,8.129,16.862,
12.49218750000,8.327,16.706,
12.49609375000,8.506,16.565,
12.50000000000,8.669,16.437,
12.50390625000,9.164,17.455,
12.50781250000,9.661,18.531,
12.51171875000,10.111,19.507,
12.51562500000,10.519,20.391,
12.51953125000,10.889,21.193,
12.52343750000,11.225,21.920,
12.52734375000,11.529,22.578,
12.53125000000,11.804,23.175,
12.53515625000,12.054,23.716,
12.53906250000,12.280,24.207,
12.54296875000,12.485,24.652,
12.54687500000,12.671,25.054,
12.55078125000,12.883,25.490,
12.55468750000,13.364,26.356,
12.55859375000,13.799,27.141,
12.56250000000,14.194,27.853,
12.56640625000,14.552,28.498,
12.57031250000,14.876,29.083,
12.57421875000,15.170,29.612,
12.57812500000,15.437,30.093,
12.58203125000,15.678,30.528,
12.58593750000,15.897,30.923,
12.58984375000,16.096,31.280,
12.59375000000,16.276,31.605,
12.59765625000,16.439,31.898,
12.60156250000,16.374,32.028,
12.60546875000,15.979,31.927,
12.60937500000,15.621,31.835,
12.61328125000,15.297,31.752,
12.61718750000,15.002,31.677,
12.62109375000,14.736,31.609,
12.62500000000,14.494,31.547,
12.62890625000,14.275,31.491,
12.63281250000,14.077,31.440,
12.63671875000,13.897,31.394,
12.64062500000,13.733,31.352,
12.64453125000,13.586,31.315,
12.64843750000,13.452,31.280,
12.65234375000,13.620,31.185,
12.65625000000,13.938,31.061,
12.66015625000,14.226,30.949,
12.66406250000,14.487,30.848,
12.66796875000,14.724,30.756,
12.67187500000,14.938,30.673,
12.67578125000,15.133,30.597,
12.67968750000,15.309,30.529,
12.68359375000,15.469,30.467,
12.68750000000,15.613,30.411,
12.69140625000,15.745,30.360,
12.69531250000,15.864,30.313,
12.69921875000,15.972,30.271,
12.70312500000,16.772,32.312,
12.70703125000,17.594,34.444,
12.71093750000,18.338,36.376,
12.71484375000,19.013,38.127,
12.71875000000,19.625,39.715,
12.72265625000,20.179,41.154,
12.72656250000,20.682,42.458,
12.73046875000,21.138,43.641,
12.73437500000,21.550,44.712,
12.73828125000,21.925,45.684,
12.74218750000,22.264,46.564,
12.74609375000,22.572,47.362,
12.75000000000,22.766,47.807,
12.75390625000,22.379,46.358,
12.75781250000,22.028,45.044,
12.76171875000,21.710,43.853,
12.76562500000,21.422,42.773,
12.76953125000,21.161,41.794,
12.77343750000,20.924,40.907,
12.77734375000,20.710,40.103,
12.78125000000,20.515,39.374,
12.78515625000,20.339,38.714,
12.78906250000,20.179,38.115,
12.79296875000,20.034,37.572,
12.79687500000,19.903,37.080,
12.80078125000,19.650,37.247,
12.80468750000,19.209,38.370,
12.80859375000,18.810,39.388,
12.81250000000,18.448,40.311,
12.81640625000,18.119,41.147,
12.82031250000,17.822,41.905,
12.82421875000,17.552,42.592,
12.82812500000,17.308,43.215,
12.83203125000,17.086,43.780,
12.83593750000,16.885,44.291,
12.83984375000,16.703,44.755,
12.84375000000,16.538,45.176,
12.84765625000,16.388,45.557,
12.85156250000,15.957,45.955,
12.85546875000,15.396,46.347,
12.85937500000,14.889,46.702,
12.86328125000,14.428,47.023,
12.86718750000,14.011,47.315,
12.87109375000,13.633,47.579,
12.87500000000,13.290,47.819,
12.87890625000,12.979,48.036,
12.88281250000,12.697,48.233,
12.88671875000,12.442,48.411,
12.89062500000,12.211,48.573,
12.89453125000,12.001,48.720,
12.89843750000,11.811,48.853,
12.90234375000,12.709,49.740,
12.90625000000,13.669,50.648,
12.91015625000,14.539,51.472,
12.91406250000,15.328,52.218,
12.91796875000,16.043,52.895,
12.92187500000,16.690,53.508,
12.92578125000,17.278,54.064,
12.92968750000,17.810,54.568,
12.93359375000,18.293,55.024,
12.93750000000,18.730,55.438,
12.94140625000,19.126,55.814,
12.94531250000,19.486,56.154,
12.94921875000,19.777,56.246,
12.95312500000,19.807,54.888,
12.95703125000,19.834,53.657,
12.96093750000,19.859,52.541,
12.96484375000,19.882,51.529,
12.96875000000,19.902,50.612,
12.97265625000,19.921,49.781,
12.97656250000,19.937,49.028,
12.98046875000,19.953,48.345,
12.98437500000,19.966,47.727,
12.98828125000,19.979,47.166,
12.99218750000,19.990,46.657,
12.99609375000,20.000,46.196,
13.00000000000,19.747,45.974,
13.00390625000,19.101,46.083,
13.00781250000,18.516,46.182,
13.01171875000,17.985,46.271,
13.01562500000,17.504,46.353,
13.01953125000,17.068,46.426,
13.02343750000,16.672,46.493,
13.02734375000,16.314,46.553,
13.03125000000,15.989,46.608,
13.03515625000,15.695,46.657,
13.03906250000,15.428,46.702,
13.04296875000,15.186,46.743,
13.04687500000,14.967,46.780,
13.05078125000,14.563,47.175,
13.05468750000,14.079,47.738,
13.05859375000,13.641,48.249,
13.06250000000,13.243,48.712,
13.06640625000,12.883,49.131,
13.07031250000,12.556,49.512,
13.07421875000,12.260,49.857,
13.07812500000,11.992,50.169,
13.08203125000,11.749,50.452,
13.08593750000,11.529,50.709,
13.08984375000,11.329,50.942,
13.09375000000,11.148,51.153,
13.09765625000,10.984,51.344,
13.10156250000,11.865,52.287,
13.10546875000,12.805,53.246,
13.10937500000,13.656,54.116,
13.11328125000,14.428,54.904,
13.11718750000,15.127,55.618,
13.12109375000,15.762,56.266,
13.12500000000,16.336,56.853,
13.12890625000,16.857,57.385,
13.13281250000,17.329,57.867,
13.13671875000,17.757,58.304,
13.14062500000,18.145,58.700,
13.14453125000,18.497,59.060,
13.14843750000,18.679,59.055,
13.15234375000,17.932,56.850,
13.15625000000,17.256,54.851,
13.16015625000,16.642,53.039,
13.16406250000,16.086,51.397,
13.16796875000,15.582,49.909,
13.17187500000,15.125,48.560,
13.17578125000,14.711,47.337,
13.17968750000,14.336,46.228,
13.18359375000,13.996,45.223,
13.18750000000,13.687,44.313,
13.19140625000,13.408,43.487,
13.19531250000,13.154,42.739,
13.19921875000,12.814,42.199,
13.20312500000,12.331,41.928,
13.20703125000,11.892,41.682,
13.21093750000,11.495,41.460,
13.21484375000,11.135,41.258,
13.21875000000,10.809,41.075,
13.22265625000,10.513,40.909,
13.22656250000,10.244,40.759,
13.23046875000,10.001,40.623,
13.23437500000,9.781,40.500,
13.23828125000,9.581,40.388,
13.24218750000,9.400,40.286,
13.24609375000,9.236,40.195,
13.25000000000,9.905,40.159,
13.25390625000,10.979,40.154,
13.25781250000,11.952,40.149,
13.26171875000,12.834,40.145,
13.26562500000,13.633,40.141,
13.26953125000,14.358,40.137,
13.27343750000,15.015,40.134,
13.27734375000,15.610,40.131,
13.28125000000,16.150,40.128,
13.28515625000,16.639,40.126,
13.28906250000,17.082,40.124,
13.29296875000,17.484,40.122,
13.29687500000,17.849,40.120,
13.30078125000,17.513,40.177,
13.30468750000,17.119,40.237,
13.30859375000,16.761,40.291,
13.31250000000,16.437,40.340,
13.31640625000,16.143,40.385,
13.32031250000,15.877,40.425,
13.32421875000,15.635,40.461,
13.32812500000,15.416,40.494,
13.33203125000,15.218,40.524,
13.33593750000,15.038,40.552,
13.33984375000,14.875,40.576,
13.34375000000,14.728,40.599,
13.34765625000,14.538,40.594,
13.35156250000,13.993,40.421,
13.35546875000,13.498,40.265,
13.35937500000,13.050,40.123,
13.36328125000,12.644,39.995,
13.36718750000,12.276,39.878,
13.37109375000,11.942,39.773,
13.37500000000,11.640,39.677,
13.37890625000,11.366,39.590,
13.38281250000,11.117,39.512,
13.38671875000,10.892,39.441,
13.39062500000,10.688,39.376,
13.39453125000,10.503,39.318,
13.39843750000,10.303,40.065,
13.40234375000,10.072,42.012,
13.40625000000,9.863,43.776,
13.41015625000,9.673,45.376,
13.41406250000,9.501,46.826,
13.41796875000,9.345,48.140,
13.42187500000,9.204,49.331,
13.42578125000,9.076,50.411,
13.42968750000,8.959,51.390,
13.43359375000,8.854,52.277,
13.43750000000,8.759,53.081,
13.44140625000,8.672,53.810,
13.44531250000,8.594,54.470,
13.44921875000,8.832,52.700,
13.45312500000,9.224,49.742,
13.45703125000,9.580,47.060,
13.46093750000,9.902,44.630,
13.46484375000,10.194,42.427,
13.46875000000,10.458,40.430,
13.47265625000,10.698,38.620,
13.47656250000,10.916,36.980,
13.48046875000,11.113,35.493,
13.48437500000,11.292,34.145,
13.48828125000,11.454,32.923,
13.49218750000,11.600,31.816,
13.49609375000,11.734,30.812,
13.50000000000,11.434,30.103,
13.50390625000,11.105,29.488,
13.50781250000,10.807,28.930,
13.51171875000,10.537,28.425,
13.51562500000,10.292,27.966,
13.51953125000,10.070,27.551,
13.52343750000,9.869,27.175,
13.52734375000,9.686,26.834,
13.53125000000,9.521,26.524,
13.53515625000,9.371,26.244,
13.53906250000,9.235,25.990,
13.54296875000,9.112,25.760,
13.54687500000,9.036,25.627,
13.55078125000,9.200,26.011,
13.55468750000,9.348,26.360,
13.55859375000,9.483,26.676,
13.56250000000,9.605,26.962,
13.56640625000,9.715,27.222,
13.57031250000,9.816,27.457,
13.57421875000,9.907,27.670,
13.57812500000,9.989,27.863,
13.58203125000,10.064,28.039,
13.58593750000,10.131,28.197,
13.58984375000,10.193,28.341,
13.59375000000,10.248,28.472,
13.59765625000,10.142,29.246,
13.60156250000,9.796,30.987,
13.60546875000,9.483,32.566,
13.60937500000,9.199,33.997,
13.61328125000,8.941,35.294,
13.61718750000,8.708,36.469,
13.62109375000,8.497,37.535,
13.62500000000,8.305,38.501,
13.62890625000,8.131,39.376,
13.63281250000,7.974,40.170,
13.63671875000,7.831,40.889,
13.64062500000,7.701,41.541,
13.64453125000,7.584,42.132,
13.64843750000,7.455,40.701,
13.65234375000,7.325,38.281,
13.65625000000,7.207,36.087,
13.66015625000,7.101,34.099,
13.66406250000,7.004,32.297,
13.66796875000,6.916,30.663,
13.67187500000,6.837,29.182,
13.67578125000,6.765,27.840,
13.67968750000,6.700,26.624,
13.68359375000,6.640,25.521,
13.68750000000,6.587,24.522,
13.69140625000,6.538,23.616,
13.69531250000,6.494,22.794,
13.69921875000,6.495,23.551,
13.70312500000,6.502,24.440,
13.70703125000,6.508,25.246,
13.71093750000,6.513,25.977,
13.71484375000,6.518,26.639,
13.71875000000,6.522,27.239,
13.72265625000,6.526,27.783,
13.72656250000,6.530,28.277,
13.73046875000,6.533,28.724,
13.73437500000,6.536,29.129,
13.73828125000,6.539,29.496,
13.74218750000,6.542,29.829,
13.74609375000,6.530,30.216,
13.75000000000,6.429,31.138,
13.75390625000,6.337,31.973,
13.75781250000,6.253,32.731,
13.76171875000,6.178,33.417,
13.76562500000,6.109,34.039,
13.76953125000,6.047,34.603,
13.77343750000,5.991,35.114,
13.77734375000,5.940,35.577,
13.78125000000,5.894,35.997,
13.78515625000,5.852,36.378,
13.78906250000,5.814,36.723,
13.79296875000,5.780,37.036,
13.79687500000,5.802,37.296,
13.80078125000,5.907,37.494,
13.80468750000,6.002,37.674,
13.80859375000,6.088,37.837,
13.81250000000,6.166,37.985,
13.81640625000,6.237,38.119,
13.82031250000,6.302,38.241,
13.82421875000,6.360,38.351,
13.82812500000,6.413,38.451,
13.83203125000,6.460,38.541,
13.83593750000,6.504,38.623,
13.83984375000,6.543,38.697,
13.84375000000,6.579,38.765,
13.84765625000,6.582,39.844,
13.85156250000,6.569,41.403,
13.85546875000,6.557,42.816,
13.85937500000,6.546,44.097,
13.86328125000,6.536,45.258,
13.86718750000,6.526,46.310,
13.87109375000,6.518,47.264,
13.87500000000,6.511,48.129,
13.87890625000,6.504,48.912,
13.88281250000,6.498,49.623,
13.88671875000,6.492,50.267,
13.89062500000,6.487,50.850,
13.89453125000,6.483,51.379,
13.89843750000,6.591,54.070,
13.90234375000,6.704,56.809,
13.90625000000,6.807,59.292,
13.91015625000,6.900,61.543,
13.91406250000,6.985,63.583,
13.91796875000,7.061,65.432,
13.92187500000,7.131,67.108,
13.92578125000,7.193,68.627,
13.92968750000,7.250,70.004,
13.93359375000,7.302,71.252,
13.93750000000,7.349,72.383,
13.94140625000,7.391,73.409,
13.94531250000,7.496,74.324,
13.94921875000,8.036,75.056,
13.95312500000,8.525,75.720,
13.95703125000,8.969,76.322,
13.96093750000,9.371,76.867,
13.96484375000,9.735,77.361,
13.96875000000,10.065,77.810,
13.97265625000,10.365,78.216,
13.97656250000,10.636,78.584,
13.98046875000,10.882,78.918,
13.98437500000,11.105,79.220,
13.98828125000,11.307,79.494,
13.99218750000,11.490,79.743,
13.99609375000,11.609,79.699,
14.00000000000,11.641,79.233,
14.00390625000,11.671,78.810,
14.00781250000,11.698,78.426,
14.01171875000,11.722,78.079,
14.01562500000,11.744,77.764,
14.01953125000,11.764,77.479,
14.02343750000,11.782,77.220,
14.02734375000,11.799,76.985,
14.03125000000,11.814,76.773,
14.03515625000,11.827,76.580,
14.03906250000,11.840,76.405,
14.04296875000,11.851,76.247,
14.04687500000,11.939,74.997,
14.05078125000,12.064,73.231,
14.05468750000,12.177,71.631,
14.05859375000,12.279,70.180,
14.06250000000,12.372,68.865,
14.06640625000,12.457,67.673,
14.07031250000,12.533,66.593,
14.07421875000,12.602,65.614,
14.07812500000,12.665,64.726,
14.08203125000,12.722,63.922,
14.08593750000,12.773,63.192,
14.08984375000,12.820,62.531,
14.09375000000,12.862,61.932,
14.09765625000,12.831,62.831,
14.10156250000,12.794,63.841,
14.10546875000,12.760,64.757,
14.10937500000,12.729,65.588,
14.11328125000,12.701,66.340,
14.11718750000,12.676,67.022,
14.12109375000,12.653,67.641,
14.12500000000,12.632,68.201,
14.12890625000,12.613,68.709,
14.13281250000,12.596,69.170,
14.13671875000,12.581,69.587,
14.14062500000,12.567,69.965,
14.14453125000,12.558,69.901,
14.14843750000,12.574,67.127,
14.15234375000,12.588,64.613,
14.15625000000,12.602,62.335,
14.16015625000,12.614,60.269,
14.16406250000,12.625,58.397,
14.16796875000,12.634,56.700,
14.17187500000,12.643,55.162,
14.17578125000,12.652,53.768,
14.17968750000,12.659,52.504,
14.18359375000,12.666,51.359,
14.18750000000,12.672,50.320,
14.19140625000,12.677,49.379,
14.19531250000,12.635,49.661,
14.19921875000,12.521,51.718,
14.20312500000,12.418,53.582,
14.20703125000,12.324,55.272,
14.21093750000,12.240,56.804,
14.21484375000,12.163,58.192,
14.21875000000,12.093,59.450,
14.22265625000,12.030,60.591,
14.22656250000,11.973,61.625,
14.23046875000,11.921,62.562,
14.23437500000,11.874,63.412,
14.23828125000,11.832,64.182,
14.24218750000,11.793,64.879,
14.24609375000,11.892,64.368,
14.25000000000,12.059,63.251,
14.25390625000,12.211,62.239,
14.25781250000,12.348,61.322,
14.26171875000,12.472,60.490,
14.26562500000,12.585,59.736,
14.26953125000,12.687,59.053,
14.27343750000,12.779,58.433,
14.27734375000,12.863,57.872,
14.28125000000,12.939,57.363,
14.28515625000,13.008,56.902,
14.28906250000,13.071,56.484,
14.29296875000,13.127,56.105,
14.29687500000,13.576,56.002,
14.30078125000,14.036,55.942,
14.30468750000,14.453,55.887,
14.30859375000,14.831,55.838,
14.31250000000,15.174,55.793,
14.31640625000,15.485,55.752,
14.32031250000,15.767,55.715,
14.32421875000,16.022,55.682,
14.32812500000,16.253,55.651,
14.33203125000,16.463,55.624,
14.33593750000,16.653,55.599,
14.33984375000,16.825,55.576,
14.34375000000,16.947,55.439,
14.34765625000,16.830,54.538,
14.35156250000,16.724,53.721,
14.35546875000,16.628,52.980,
14.35937500000,16.541,52.309,
14.36328125000,16.462,51.700,
14.36718750000,16.390,51.148,
14.37109375000,16.326,50.648,
14.37500000000,16.267,50.195,
14.37890625000,16.213,49.784,
14.38281250000,16.165,49.412,
14.38671875000,16.121,49.075,
14.39062500000,16.082,48.769,
14.39453125000,16.924,48.603,
14.39843750000,19.081,48.628,
14.40234375000,21.036,48.651,
14.40625000000,22.808,48.672,
14.41015625000,24.415,48.691,
14.41406250000,25.871,48.708,
14.41796875000,27.191,48.724,
14.42187500000,28.387,48.738,
14.42578125000,29.471,48.751,
14.42968750000,30.454,48.763,
14.43359375000,31.345,48.773,
14.43750000000,32.152,48.783,
14.44140625000,32.884,48.791,
14.44531250000,32.213,48.006,
14.44921875000,30.842,46.842,
14.45312500000,29.600,45.787,
14.45703125000,28.474,44.830,
14.46093750000,27.453,43.963,
14.46484375000,26.528,43.177,
14.46875000000,25.690,42.465,
14.47265625000,24.929,41.819,
14.47656250000,24.240,41.234,
14.48046875000,23.616,40.703,
14.48437500000,23.050,40.222,
14.48828125000,22.537,39.786,
14.49218750000,22.072,39.391,
14.49609375000,22.300,39.267,
14.50000000000,22.596,39.185,
14.50390625000,22.864,39.111,
14.50781250000,23.107,39.044,
14.51171875000,23.327,38.984,
14.51562500000,23.527,38.929,
14.51953125000,23.707,38.879,
14.52343750000,23.871,38.834,
14.52734375000,24.020,38.793,
14.53125000000,24.155,38.756,
14.53515625000,24.277,38.722,
14.53906250000,24.387,38.692,
14.54296875000,24.596,38.742,
14.54687500000,25.507,39.305,
14.55078125000,26.333,39.815,
14.55468750000,27.081,40.277,
14.55859375000,27.760,40.696,
14.56250000000,28.374,41.076,
14.56640625000,28.932,41.420,
14.57031250000,29.437,41.732,
14.57421875000,29.895,42.015,
14.57812500000,30.310,42.272,
14.58203125000,30.686,42.504,
14.58593750000,31.027,42.715,
14.58984375000,31.336,42.906,
14.59375000000,32.049,43.940,
14.59765625000,33.379,46.244,
14.60156250000,34.586,48.333,
14.60546875000,35.679,50.226,
14.60937500000,36.670,51.942,
14.61328125000,37.569,53.498,
14.61718750000,38.383,54.907,
14.62109375000,39.121,56.185,
14.62500000000,39.790,57.344,
14.62890625000,40.397,58.394,
14.63281250000,40.946,59.345,
14.63671875000,41.445,60.208,
14.64062500000,41.896,60.990,
14.64453125000,41.743,59.370,
14.64843750000,41.283,56.571,
14.65234375000,40.866,54.034,
14.65625000000,40.488,51.735,
14.66015625000,40.145,49.651,
14.66406250000,39.835,47.762,
14.66796875000,39.553,46.049,
14.67187500000,39.298,44.497,
14.67578125000,39.067,43.090,
14.67968750000,38.857,41.815,
14.68359375000,38.667,40.659,
14.68750000000,38.495,39.612,
14.69140625000,38.339,38.662,
14.69531250000,39.582,39.290,
14.69921875000,40.898,40.062,
14.70312500000,42.090,40.761,
14.70703125000,43.171,41.395,
14.71093750000,44.150,41.970,
14.71484375000,45.038,42.491,
14.71875000000,45.843,42.963,
14.72265625000,46.573,43.391,
14.72656250000,47.234,43.779,
14.73046875000,47.833,44.131,
14.73437500000,48.376,44.449,
14.73828125000,48.869,44.738,
14.74218750000,49.199,44.873,
14.74609375000,48.721,44.147,
14.75000000000,48.287,43.489,
14.75390625000,47.894,42.893,
14.75781250000,47.538,42.352,
14.76171875000,47.216,41.862,
14.76562500000,46.923,41.418,
14.76953125000,46.658,41.015,
14.77343750000,46.418,40.650,
14.77734375000,46.200,40.319,
14.78125000000,46.002,40.020,
14.78515625000,45.823,39.748,
14.78906250000,45.661,39.502,
14.79296875000,45.090,38.993,
14.79687500000,43.899,38.081,
14.80078125000,42.820,37.254,
14.80468750000,41.842,36.504,
14.80859375000,40.955,35.824,
14.81250000000,40.152,35.208,
14.81640625000,39.423,34.650,
14.82031250000,38.763,34.143,
14.82421875000,38.164,33.685,
14.82812500000,37.622,33.269,
14.83203125000,37.130,32.892,
14.83593750000,36.685,32.550,
14.83984375000,36.281,32.241,
14.84375000000,35.579,31.405,
14.84765625000,34.751,30.330,
14.85156250000,34.001,29.356,
14.85546875000,33.320,28.473,
14.85937500000,32.704,27.672,
14.86328125000,32.145,26.947,
14.86718750000,31.639,26.289,
14.87109375000,31.180,25.693,
14.87500000000,30.763,25.153,
14.87890625000,30.386,24.663,
14.88281250000,30.044,24.219,
14.88671875000,29.734,23.817,
14.89062500000,29.453,23.452,
14.89453125000,28.516,23.049,
14.89843750000,27.573,22.674,
14.90234375000,26.719,22.334,
14.90625000000,25.945,22.025,
14.91015625000,25.243,21.746,
14.91406250000,24.607,21.493,
14.91796875000,24.030,21.263,
14.92187500000,23.507,21.055,
14.92578125000,23.033,20.866,
14.92968750000,22.604,20.695,
14.93359375000,22.215,20.540,
14.93750000000,21.862,20.400,
14.94140625000,21.575,20.145,
14.94531250000,21.538,19.069,
14.94921875000,21.505,18.093,
14.95312500000,21.475,17.208,
14.95703125000,21.447,16.407,
14.96093750000,21.422,15.680,
14.96484375000,21.400,15.021,
14.96875000000,21.379,14.424,
14.97265625000,21.361,13.883,
14.97656250000,21.344,13.392,
14.98046875000,21.328,12.948,
14.98437500000,21.315,12.545,
14.98828125000,21.302,12.179,
14.99218750000,21.153,11.903,
14.99609375000,20.800,11.741,
15.00000000000,20.480,11.594,
15.00390625000,20.189,11.460,
15.00781250000,19.926,11.339,
15.01171875000,19.688,11.230,
15.01562500000,19.471,11.130,
15.01953125000,19.276,11.040,
15.02343750000,19.098,10.959,
15.02734375000,18.937,10.885,
15.03125000000,18.791,10.817,
15.03515625000,18.659,10.757,
15.03906250000,18.539,10.702,
15.04296875000,19.098,11.443,
15.04687500000,19.987,12.567,
15.05078125000,20.792,13.586,
15.05468750000,21.522,14.509,
15.05859375000,22.184,15.346,
15.06250000000,22.783,16.105,
15.06640625000,23.327,16.793,
15.07031250000,23.820,17.416,
15.07421875000,24.266,17.981,
15.07812500000,24.671,18.493,
15.08203125000,25.038,18.957,
15.08593750000,25.371,19.378,
15.08984375000,25.672,19.760,
15.09375000000,24.990,20.017,
15.09765625000,24.241,20.238,
15.10156250000,23.563,20.439,
15.10546875000,22.948,20.621,
15.10937500000,22.390,20.786,
15.11328125000,21.885,20.935,
15.11718750000,21.427,21.070,
15.12109375000,21.012,21.193,
15.12500000000,20.636,21.304,
15.12890625000,20.295,21.405,
15.13281250000,19.985,21.497,
15.13671875000,19.705,21.580,
15.14062500000,19.406,21.807,
15.14453125000,18.832,23.025,
15.14843750000,18.312,24.129,
15.15234375000,17.841,25.130,
15.15625000000,17.413,26.038,
15.16015625000,17.026,26.860,
15.16406250000,16.675,27.606,
15.16796875000,16.357,28.281,
15.17187500000,16.068,28.894,
15.17578125000,15.807,29.449,
15.17968750000,15.570,29.952,
15.18359375000,15.355,30.408,
15.18750000000,15.160,30.822,
15.19140625000,15.332,30.800,
15.19531250000,16.040,30.150,
15.19921875000,16.682,29.561,
15.20312500000,17.263,29.027,
15.20703125000,17.790,28.543,
15.21093750000,18.268,28.104,
15.21484375000,18.701,27.707,
15.21875000000,19.094,27.346,
15.22265625000,19.450,27.020,
15.22656250000,19.772,26.724,
15.23046875000,20.065,26.455,
15.23437500000,20.330,26.212,
15.23828125000,20.570,25.992,
15.24218750000,20.719,27.251,
15.24609375000,20.815,29.226,
15.25000000000,20.902,31.017,
15.25390625000,20.981,32.640,
15.25781250000,21.053,34.111,
15.26171875000,21.118,35.444,
15.26562500000,21.177,36.652,
15.26953125000,21.230,37.748,
15.27343750000,21.279,38.741,
15.27734375000,21.322,39.641,
15.28125000000,21.362,40.456,
15.28515625000,21.398,41.196,
15.28906250000,21.431,41.866,
15.29296875000,21.061,40.601,
15.29687500000,20.672,39.200,
15.30078125000,20.319,37.930,
15.30468750000,19.999,36.779,
15.30859375000,19.709,35.736,
15.31250000000,19.447,34.790,
15.31640625000,19.208,33.933,
15.32031250000,18.993,33.156,
15.32421875000,18.797,32.451,
15.32812500000,18.620,31.813,
15.33203125000,18.459,31.234,
15.33593750000,18.313,30.710,
15.33984375000,18.152,30.202,
15.34375000000,17.815,29.529,
15.34765625000,17.509,28.918,
15.35156250000,17.232,28.365,
15.35546875000,16.981,27.863,
15.35937500000,16.753,27.408,
15.36328125000,16.547,26.996,
15.36718750000,16.360,26.622,
15.37109375000,16.191,26.284,
15.37500000000,16.037,25.977,
15.37890625000,15.898,25.699,
15.38281250000,15.771,25.446,
15.38671875000,15.657,25.218,
15.39062500000,15.468,25.415,
15.39453125000,15.161,26.234,
15.39843750000,14.883,26.977,
15.40234375000,14.631,27.650,
15.40625000000,14.403,28.260,
15.41015625000,14.196,28.813,
15.41406250000,14.008,29.314,
15.41796875000,13.838,29.769,
15.42187500000,13.684,30.180,
15.42578125000,13.544,30.554,
15.42968750000,13.417,30.892,
15.43359375000,13.302,31.199,
15.43750000000,13.198,31.477,
15.44140625000,13.153,33.066,
15.44531250000,13.140,35.270,
15.44921875000,13.128,37.269,
15.45312500000,13.117,39.080,
15.45703125000,13.108,40.721,
15.46093750000,13.099,42.209,
15.46484375000,13.091,43.558,
15.46875000000,13.084,44.780,
15.47265625000,13.077,45.889,
15.47656250000,13.071,46.893,
15.48046875000,13.066,47.803,
15.48437500000,13.061,48.629,
15.48828125000,13.057,49.377,
15.49218750000,12.574,48.306,
15.49609375000,12.071,47.097,
15.50000000000,11.616,46.002,
15.50390625000,11.203,45.009,
15.50781250000,10.829,44.109,
15.51171875000,10.490,43.293,
15.51562500000,10.182,42.554,
15.51953125000,9.903,41.884,
15.52343750000,9.651,41.276,
15.52734375000,9.422,40.726,
15.53125000000,9.214,40.227,
15.53515625000,9.026,39.774,
15.53906250000,8.972,39.851,
15.54296875000,9.696,43.161,
15.54687500000,10.353,46.162,
15.55078125000,10.948,48.883,
15.55468750000,11.488,51.348,
15.55859375000,11.977,53.583,
15.56250000000,12.420,55.609,
15.56640625000,12.822,57.445,
15.57031250000,13.186,59.109,
15.57421875000,13.516,60.618,
15.57812500000,13.815,61.985,
15.58203125000,14.086,63.225,
15.58593750000,14.332,64.348,
15.58984375000,14.524,64.519,
15.59375000000,14.649,63.328,
15.59765625000,14.762,62.249,
15.60156250000,14.865,61.271,
15.60546875000,14.958,60.384,
15.60937500000,15.042,59.581,
15.61328125000,15.118,58.852,
15.61718750000,15.187,58.192,
15.62109375000,15.250,57.593,
15.62500000000,15.307,57.051,
15.62890625000,15.359,56.559,
15.63281250000,15.405,56.114,
15.63671875000,15.448,55.710,
15.64062500000,14.896,54.916,
15.64453125000,14.060,53.953,
15.64843750000,13.302,53.079,
15.65234375000,12.614,52.288,
15.65625000000,11.992,51.570,
15.66015625000,11.427,50.920,
15.66406250000,10.915,50.330,
15.66796875000,10.451,49.796,
15.67187500000,10.031,49.312,
15.67578125000,9.649,48.873,
15.67968750000,9.304,48.475,
15.68359375000,8.991,48.114,
15.68750000000,8.707,47.787,
15.69140625000,8.683,46.519,
15.69531250000,8.692,45.238,
15.69921875000,8.701,44.077,
15.70312500000,8.708,43.024,
15.70703125000,8.715,42.070,
15.71093750000,8.722,41.205,
15.71484375000,8.727,40.422,
15.71875000000,8.733,39.711,
15.72265625000,8.737,39.067,
15.72656250000,8.742,38.483,
15.73046875000,8.746,37.954,
15.73437500000,8.749,37.475,
15.73828125000,8.734,37.253,
15.74218750000,8.594,38.474,
15.74609375000,8.467,39.581,
15.75000000000,8.352,40.584,
15.75390625000,8.247,41.494,
15.75781250000,8.153,42.318,
15.76171875000,8.067,43.065,
15.76562500000,7.989,43.742,
15.76953125000,7.919,44.356,
15.77343750000,7.855,44.912,
15.77734375000,7.797,45.416,
15.78125000000,7.745,45.874,
15.78515625000,7.697,46.288,
15.78906250000,7.640,46.792,
15.79296875000,7.564,47.452,
15.79687500000,7.495,48.051,
15.80078125000,7.432,48.594,
15.80468750000,7.376,49.086,
15.80859375000,7.324,49.532,
15.81250000000,7.278,49.936,
15.81640625000,7.236,50.302,
15.82031250000,7.198,50.634,
15.82421875000,7.163,50.935,
15.82812500000,7.132,51.208,
15.83203125000,7.103,51.456,
15.83593750000,7.077,51.680,
15.83984375000,7.351,53.556,
15.84375000000,7.770,56.212,
15.84765625000,8.149,58.620,
15.85156250000,8.492,60.802,
15.85546875000,8.804,62.780,
15.85937500000,9.086,64.573,
15.86328125000,9.342,66.198,
15.86718750000,9.574,67.672,
15.87109375000,9.784,69.007,
15.87500000000,9.975,70.217,
15.87890625000,10.148,71.314,
15.88281250000,10.304,72.308,
15.88671875000,10.446,73.210,
15.89062500000,10.460,71.550,
15.89453125000,10.457,69.710,
15.89843750000,10.455,68.041,
15.90234375000,10.452,66.529,
15.90625000000,10.450,65.158,
15.91015625000,10.448,63.916,
15.91406250000,10.446,62.789,
15.91796875000,10.445,61.768,
15.92187500000,10.443,60.843,
15.92578125000,10.442,60.004,
15.92968750000,10.441,59.244,
15.93359375000,10.440,58.555,
15.93750000000,10.402,59.075,
15.94140625000,10.120,67.179,
15.94531250000,9.864,74.524,
15.94921875000,9.633,81.182,
15.95312500000,9.423,87.217,
15.95703125000,9.233,92.687,
15.96093750000,9.061,97.645,
15.96484375000,8.904,102.139,
15.96875000000,8.763,106.212,
15.97265625000,8.634,109.905,
15.97656250000,8.518,113.251,
15.98046875000,8.412,116.285,
15.98437500000,8.317,119.035,
15.98828125000,8.228,118.509,
15.99218750000,8.143,113.243,
15.99609375000,8.066,108.470,
16.00000000000,7.996,104.144,
16.00390625000,7.933,100.223,
16.00781250000,7.876,96.668,
16.01171875000,7.824,93.446,
16.01562500000,7.777,90.526,
16.01953125000,7.734,87.879,
16.02343750000,7.696,85.480,
16.02734375000,7.661,83.305,
16.03125000000,7.629,81.334,
16.03515625000,7.600,79.547,
16.03906250000,7.698,77.272,
16.04296875000,7.858,74.837,
16.04687500000,8.003,72.629,
